1,576	1,8	0,027
1,577	1,8	0,062
1,578	1,8	0,034
1,579	1,8	0,029
1,58	1,8	0,031
1,581	1,8	0,039
1,582	1,8	0,083
1,583	1,8	0,070
1,584	1,8	0,079
1,585	1,8	0,095
1,586	1,8	0,068
1,587	1,8	0,054
1,588	1,8	0,024
1,589	1,8	0,001
1,59	1,8	0,005
1,591	1,8	0,020
1,592	1,8	0,021
1,593	1,8	0,014
1,594	1,8	0,039
1,595	1,8	0,076
1,596	1,8	0,076
1,597	1,8	0,060
1,598	1,8	0,081
1,599	1,8	0,074
1,6	1,8	0,051
1,601	1,8	0,052
1,602	1,8	0,074
1,603	1,8	0,113
1,604	1,8	0,106
1,605	1,8	0,099
1,606	1,8	0,075
1,607	1,8	0,066
1,608	1,8	0,119
1,609	1,8	0,129
1,61	1,8	0,119
1,611	1,8	0,096
1,612	1,8	0,096
1,613	1,8	0,073
1,614	1,8	0,036
1,615	1,8	0,061
1,616	1,8	0,060
1,617	1,8	0,048
1,618	1,8	0,079
1,619	1,8	0,129
1,62	1,8	0,124
1,621	1,8	0,101
1,622	1,8	0,106
1,623	1,8	0,098
1,624	1,8	0,079
1,625	1,8	0,089
1,626	1,8	0,108
1,627	1,8	0,097
1,628	1,8	0,075
1,629	1,8	0,078
1,63	1,8	0,083
1,631	1,8	0,094
1,632	1,9	0,119
1,633	1,9	0,119
1,634	1,9	0,131
1,635	1,9	0,119
1,636	1,9	0,084
1,637	1,9	0,079
1,638	1,9	0,101
1,639	1,9	0,110
1,64	1,9	0,098
1,641	1,9	0,084
1,642	1,9	0,070
1,643	1,9	0,066
1,644	1,9	0,059
1,645	1,9	0,064
1,646	1,9	0,054
1,647	1,9	0,050
1,648	1,9	0,065
1,649	1,9	0,073
1,65	1,9	0,086
1,651	1,9	0,072
1,652	1,9	0,045
1,653	1,9	0,028
1,654	1,9	0,020
1,655	1,9	-0,005
1,656	1,9	-0,028
1,657	1,9	0,022
1,658	1,9	0,044
1,659	1,9	0,041
1,66	1,9	0,052
1,661	1,9	0,039
1,662	1,9	0,012
1,663	1,9	-0,034
1,664	1,9	-0,042
1,665	1,9	-0,050
1,666	1,9	-0,059
1,667	1,9	-0,036
1,668	1,9	-0,034
1,669	1,9	-0,026
1,67	1,9	-0,024
1,671	1,9	-0,034
1,672	1,9	-0,044
1,673	1,9	-0,052
1,674	1,9	-0,036
1,675	1,9	-0,053
1,676	1,9	-0,056
1,677	1,9	-0,023
1,678	1,9	-0,041
1,679	1,9	-0,071
1,68	1,9	-0,056
1,681	1,9	-0,028
1,682	1,9	-0,023
1,683	1,9	-0,041
1,684	1,9	-0,037
1,685	1,9	-0,007
1,686	1,9	-0,015
1,687	1,9	-0,061
1,688	1,9	-0,084
1,689	1,9	-0,074
1,69	1,9	-0,058
1,691	1,9	-0,068
1,692	1,9	-0,094
1,693	1,9	-0,121
1,694	1,9	-0,126
1,695	1,9	-0,098
1,696	1,9	-0,060
1,697	1,9	-0,064
1,698	1,9	-0,106
1,699	1,9	-0,120
1,7	1,9	-0,118
1,701	1,9	-0,093
1,702	1,9	-0,099
1,703	1,9	-0,129
1,704	1,9	-0,121
1,705	1,9	-0,142
1,706	1,9	-0,194
1,707	1,9	-0,194
1,708	1,9	-0,130
1,709	2,0	-0,080
1,71	2,0	-0,075
1,711	2,0	-0,075
1,712	2,0	-0,058
1,713	2,0	-0,090
1,714	2,0	-0,128
1,715	2,0	-0,142
1,716	2,0	-0,171
1,717	2,0	-0,180
1,718	2,0	-0,140
1,719	2,0	-0,101
1,72	2,0	-0,110
1,721	2,0	-0,125
1,722	2,0	-0,111
1,723	2,0	-0,104
1,724	2,0	-0,111
1,725	2,0	-0,107
1,726	2,0	-0,129
1,727	2,0	-0,133
1,728	2,0	-0,120
1,729	2,0	-0,135
1,73	2,0	-0,141
1,731	2,0	-0,114
1,732	2,0	-0,123
1,733	2,0	-0,153
1,734	2,0	-0,128
1,735	2,0	-0,121
1,736	2,0	-0,142
1,737	2,0	-0,138
1,738	2,0	-0,126
1,739	2,0	-0,127
1,74	2,0	-0,140
1,741	2,0	-0,114
1,742	2,0	-0,123
1,743	2,0	-0,168
1,744	2,0	-0,141
1,745	2,0	-0,108
1,746	2,0	-0,110
1,747	2,0	-0,103
1,748	2,0	-0,089
1,749	2,0	-0,077
1,75	2,0	-0,075
1,751	2,0	-0,080
1,752	2,0	-0,077
1,753	2,0	-0,123
1,754	2,0	-0,162
1,755	2,0	-0,136
1,756	2,0	-0,116
1,757	2,0	-0,116
1,758	2,0	-0,133
1,759	2,0	-0,131
1,76	2,0	-0,116
1,761	2,0	-0,141
1,762	2,0	-0,143
1,763	2,0	-0,126
1,764	2,0	-0,097
1,765	2,0	-0,066
1,766	2,0	-0,096
1,767	2,0	-0,128
1,768	2,0	-0,125
1,769	2,0	-0,123
1,77	2,0	-0,127
1,771	2,0	-0,114
1,772	2,0	-0,101
1,773	2,0	-0,099
1,774	2,0	-0,077
1,775	2,0	-0,051
1,776	2,0	-0,044
1,777	2,0	-0,048
1,778	2,0	-0,054
1,779	2,0	-0,043
1,78	2,0	-0,077
1,781	2,0	-0,123
1,782	2,0	-0,144
1,783	2,0	-0,148
1,784	2,0	-0,138
1,785	2,0	-0,166
1,786	2,0	-0,152
1,787	2,0	-0,109
1,788	2,0	-0,105
1,789	2,0	-0,103
1,79	2,0	-0,104
1,791	2,0	-0,111
1,792	2,0	-0,104
1,793	2,0	-0,108
1,794	2,0	-0,124
1,795	2,0	-0,118
1,796	2,0	-0,116
1,797	2,0	-0,103
1,798	2,0	-0,085
1,799	2,0	-0,097
1,8	2,0	-0,102
1,801	2,0	-0,074
1,802	2,0	-0,076
1,803	2,0	-0,089
1,804	2,0	-0,103
1,805	2,0	-0,129
1,806	2,0	-0,114
1,807	2,0	-0,104
1,808	2,0	-0,104
1,809	2,0	-0,090
1,81	2,0	-0,071
1,811	2,0	-0,051
1,812	2,0	-0,049
1,813	2,0	-0,066
1,814	2,0	-0,079
1,815	2,0	-0,099
1,816	2,1	-0,096
1,817	2,1	-0,098
1,818	2,1	-0,086
1,819	2,1	-0,074
1,82	2,1	-0,111
1,821	2,1	-0,113
1,822	2,1	-0,081
1,823	2,1	-0,058
1,824	2,1	-0,045
1,825	2,1	-0,051
1,826	2,1	-0,090
1,827	2,1	-0,091
1,828	2,1	-0,092
1,829	2,1	-0,148
1,83	2,1	-0,131
1,831	2,1	-0,105
1,832	2,1	-0,113
1,833	2,1	-0,086
1,834	2,1	-0,076
1,835	2,1	-0,087
1,836	2,1	-0,080
1,837	2,1	-0,092
1,838	2,1	-0,086
1,839	2,1	-0,066
1,84	2,1	-0,052
1,841	2,1	0,001
1,842	2,1	-0,018
1,843	2,1	-0,072
1,844	2,1	-0,099
1,845	2,1	-0,085
1,846	2,1	-0,046
1,847	2,1	-0,051
1,848	2,1	-0,043
1,849	2,1	-0,039
1,85	2,1	-0,064
1,851	2,1	-0,072
1,852	2,1	-0,056
1,853	2,2	-0,065
1,854	2,2	-0,084
1,855	2,2	-0,091
1,856	2,2	-0,096
1,857	2,2	-0,104
1,858	2,2	-0,108
1,859	2,2	-0,086
1,86	2,2	-0,080
1,861	2,2	-0,073
1,862	2,2	-0,072
1,863	2,2	-0,064
1,864	2,2	-0,036
1,865	2,2	-0,051
1,866	2,2	-0,063
1,867	2,2	-0,049
1,868	2,2	-0,041
1,869	2,2	-0,059
1,87	2,2	-0,084
1,871	2,2	-0,098
1,872	2,2	-0,089
1,873	2,2	-0,063
1,874	2,2	-0,056
1,875	2,2	-0,056
1,876	2,2	-0,057
1,877	2,2	-0,086
1,878	2,2	-0,109
1,879	2,2	-0,099
1,88	2,2	-0,112
1,881	2,2	-0,128
1,882	2,2	-0,091
1,883	2,2	-0,060
1,884	2,2	-0,072
1,885	2,2	-0,050
1,886	2,2	-0,059
1,887	2,2	-0,096
1,888	2,2	-0,076
1,889	2,2	-0,071
1,89	2,2	-0,088
1,891	2,2	-0,105
1,892	2,2	-0,058
1,893	2,2	-0,014
1,894	2,2	-0,014
1,895	2,2	0,016
1,896	2,2	0,022
1,897	2,2	0,001
1,898	2,2	-0,049
1,899	2,2	-0,059
1,9	2,2	-0,043
1,901	2,2	-0,038
1,902	2,2	-0,025
1,903	2,2	-0,019
1,904	2,2	-0,025
1,905	2,2	-0,071
1,906	2,2	-0,095
1,907	2,2	-0,084
1,908	2,2	-0,081
1,909	2,2	-0,071
1,91	2,2	-0,102
1,911	2,2	-0,121
1,912	2,2	-0,064
1,913	2,2	-0,086
1,914	2,2	-0,131
1,915	2,2	-0,101
1,916	2,2	-0,068
1,917	2,2	-0,073
1,918	2,2	-0,124
1,919	2,2	-0,109
1,92	2,2	-0,051
1,921	2,2	-0,039
1,922	2,2	-0,043
1,923	2,2	-0,031
1,924	2,2	-0,042
1,925	2,2	-0,049
1,926	2,2	-0,044
1,927	2,2	-0,045
1,928	2,2	-0,019
1,929	2,2	0,000
1,93	2,2	0,018
1,931	2,2	-0,006
1,932	2,2	-0,024
1,933	2,2	-0,068
1,934	2,2	-0,139
1,935	2,2	-0,116
1,936	2,2	-0,114
1,937	2,2	-0,120
1,938	2,2	-0,111
1,939	2,2	-0,101
1,94	2,2	-0,092
1,941	2,2	-0,076
1,942	2,2	-0,071
1,943	2,2	-0,101
1,944	2,2	-0,081
1,945	2,2	-0,066
1,946	2,2	-0,086
1,947	2,2	-0,077
1,948	2,2	-0,041
1,949	2,2	-0,021
1,95	2,2	-0,049
1,951	2,2	-0,068
1,952	2,2	-0,052
1,953	2,2	-0,077
1,954	2,2	-0,100
1,955	2,2	-0,101
1,956	2,2	-0,100
1,957	2,2	-0,083
1,958	2,2	-0,098
1,959	2,2	-0,130
1,96	2,2	-0,111
1,961	2,2	-0,095
1,962	2,2	-0,106
1,963	2,2	-0,089
1,964	2,2	-0,083
1,965	2,2	-0,096
1,966	2,2	-0,109
1,967	2,2	-0,084
1,968	2,2	-0,067
1,969	2,2	-0,108
1,97	2,3	-0,109
1,971	2,3	-0,096
1,972	2,3	-0,089
1,973	2,3	-0,065
1,974	2,3	-0,094
1,975	2,3	-0,104
1,976	2,3	-0,102
1,977	2,3	-0,103
1,978	2,3	-0,083
1,979	2,3	-0,090
1,98	2,3	-0,106
1,981	2,3	-0,093
1,982	2,3	-0,086
1,983	2,3	-0,089
1,984	2,3	-0,056
1,985	2,3	-0,051
1,986	2,3	-0,084
1,987	2,3	-0,113
1,988	2,3	-0,110
1,989	2,3	-0,101
1,99	2,3	-0,089
1,991	2,3	-0,049
1,992	2,3	-0,017
1,993	2,3	-0,026
1,994	2,3	-0,082
1,995	2,3	-0,103
1,996	2,3	-0,103
1,997	2,3	-0,136
1,998	2,3	-0,128
1,999	2,3	-0,114
2	2,3	-0,107
2,001	2,3	-0,066
2,002	2,3	-0,061
2,003	2,3	-0,069
2,004	2,3	-0,074
2,005	2,3	-0,118
2,006	2,3	-0,132
2,007	2,3	-0,110
2,008	2,3	-0,100
2,009	2,3	-0,101
2,01	2,3	-0,106
2,011	2,3	-0,114
2,012	2,3	-0,114
2,013	2,3	-0,118
2,014	2,3	-0,089
2,015	2,3	-0,048
2,016	2,3	-0,058
2,017	2,3	-0,074
2,018	2,3	-0,124
2,019	2,3	-0,166
2,02	2,3	-0,158
2,021	2,3	-0,107
2,022	2,3	-0,046
2,023	2,3	-0,063
2,024	2,3	-0,088
2,025	2,3	-0,043
2,026	2,3	-0,026
2,027	2,3	-0,038
2,028	2,3	-0,044
2,029	2,3	-0,055
2,03	2,3	-0,074
2,031	2,3	-0,084
2,032	2,3	-0,072
2,033	2,3	-0,074
2,034	2,3	-0,068
2,035	2,3	-0,052
2,036	2,3	-0,051
2,037	2,3	-0,026
2,038	2,3	-0,003
2,039	2,3	-0,043
2,04	2,3	-0,051
2,041	2,3	-0,007
2,042	2,3	-0,019
2,043	2,3	-0,039
2,044	2,3	-0,040
2,045	2,3	-0,073
2,046	2,3	-0,086
2,047	2,3	-0,052
2,048	2,3	-0,022
2,049	2,3	-0,058
2,05	2,3	-0,091
2,051	2,4	-0,074
2,052	2,4	-0,052
2,053	2,4	-0,043
2,054	2,4	-0,055
2,055	2,4	-0,049
2,056	2,4	-0,035
2,057	2,4	-0,058
2,058	2,4	-0,071
2,059	2,4	-0,064
2,06	2,4	-0,066
2,061	2,4	-0,053
2,062	2,4	-0,072
2,063	2,4	-0,105
2,064	2,4	-0,058
2,065	2,4	-0,026
2,066	2,4	-0,050
2,067	2,4	-0,059
2,068	2,4	-0,068
2,069	2,4	-0,076
2,07	2,4	-0,074
2,071	2,4	-0,074
2,072	2,4	-0,071
2,073	2,4	-0,066
2,074	2,4	-0,065
2,075	2,4	-0,086
2,076	2,4	-0,101
2,077	2,4	-0,094
2,078	2,4	-0,094
2,079	2,4	-0,088
2,08	2,4	-0,074
2,081	2,4	-0,055
2,082	2,4	-0,091
2,083	2,4	-0,126
2,084	2,4	-0,126
2,085	2,4	-0,088
2,086	2,4	-0,064
2,087	2,4	-0,102
2,088	2,4	-0,128
2,089	2,4	-0,163
2,09	2,4	-0,141
2,091	2,4	-0,079
2,092	2,4	-0,046
2,093	2,4	-0,086
2,094	2,4	-0,106
2,095	2,4	-0,068
2,096	2,4	-0,089
2,097	2,4	-0,109
2,098	2,4	-0,099
2,099	2,4	-0,060
2,1	2,4	-0,049
2,101	2,4	-0,059
2,102	2,4	-0,061
2,103	2,4	-0,098
2,104	2,4	-0,104
2,105	2,4	-0,092
2,106	2,4	-0,068
2,107	2,4	-0,055
2,108	2,4	-0,074
2,109	2,4	-0,106
2,11	2,4	-0,128
2,111	2,4	-0,099
2,112	2,4	-0,088
2,113	2,5	-0,128
2,114	2,5	-0,112
2,115	2,5	-0,075
2,116	2,5	-0,052
2,117	2,5	-0,047
2,118	2,5	-0,051
2,119	2,5	-0,021
2,12	2,5	-0,010
2,121	2,5	-0,071
2,122	2,5	-0,129
2,123	2,5	-0,083
2,124	2,5	-0,058
2,125	2,5	-0,059
2,126	2,5	-0,063
2,127	2,5	-0,069
2,128	2,5	-0,019
2,129	2,5	-0,016
2,13	2,5	-0,026
2,131	2,5	-0,042
2,132	2,5	-0,075
2,133	2,5	-0,071
2,134	2,5	-0,064
2,135	2,5	-0,076
2,136	2,5	-0,068
2,137	2,5	-0,076
2,138	2,5	-0,089
2,139	2,5	-0,044
2,14	2,5	-0,028
2,141	2,5	-0,018
2,142	2,5	-0,022
2,143	2,5	-0,060
2,144	2,5	-0,037
2,145	2,5	-0,001
2,146	2,5	0,014
2,147	2,5	0,011
2,148	2,5	0,004
2,149	2,5	-0,001
2,15	2,5	-0,031
2,151	2,5	-0,058
2,152	2,5	-0,070
2,153	2,5	-0,085
2,154	2,5	-0,084
2,155	2,5	-0,072
2,156	2,5	-0,077
2,157	2,5	-0,090
2,158	2,5	-0,081
2,159	2,5	-0,074
2,16	2,5	-0,072
2,161	2,5	-0,046
2,162	2,5	-0,046
2,163	2,5	-0,039
2,164	2,5	-0,039
2,165	2,5	-0,065
2,166	2,5	-0,091
2,167	2,5	-0,068
2,168	2,5	-0,017
2,169	2,5	-0,068
2,17	2,5	-0,113
2,171	2,5	-0,139
2,172	2,5	-0,156
2,173	2,5	-0,119
2,174	2,5	-0,104
2,175	2,5	-0,101
2,176	2,5	-0,091
2,177	2,5	-0,099
2,178	2,5	-0,093
2,179	2,5	-0,095
2,18	2,5	-0,089
2,181	2,5	-0,026
2,182	2,5	-0,009
2,183	2,5	-0,019
2,184	2,5	-0,032
2,185	2,5	-0,072
2,186	2,5	-0,077
2,187	2,5	-0,110
2,188	2,5	-0,099
2,189	2,5	-0,024
2,19	2,5	-0,007
2,191	2,5	-0,043
2,192	2,5	-0,052
2,193	2,5	-0,008
2,194	2,5	0,014
2,195	2,5	0,008
2,196	2,5	-0,053
2,197	2,5	-0,089
2,198	2,5	0,006
2,199	2,5	0,039
2,2	2,5	0,001
2,201	2,5	-0,004
2,202	2,5	-0,039
2,203	2,5	-0,079
2,204	2,5	-0,077
2,205	2,5	-0,031
2,206	2,5	-0,024
2,207	2,5	-0,045
2,208	2,5	-0,034
2,209	2,5	-0,052
2,21	2,5	-0,050
2,211	2,5	-0,048
2,212	2,5	-0,078
2,213	2,5	-0,061
2,214	2,5	-0,033
2,215	2,5	-0,026
2,216	2,5	-0,023
2,217	2,5	-0,004
2,218	2,5	0,016
2,219	2,5	0,009
2,22	2,5	-0,008
2,221	2,5	-0,004
2,222	2,5	-0,011
2,223	2,5	-0,036
2,224	2,5	-0,007
2,225	2,5	0,028
2,226	2,5	0,014
2,227	2,5	-0,016
2,228	2,5	-0,017
2,229	2,5	-0,030
2,23	2,5	-0,068
2,231	2,5	-0,074
2,232	2,5	-0,068
2,233	2,5	-0,056
2,234	2,5	-0,062
2,235	2,5	-0,063
2,236	2,5	-0,072
2,237	2,5	-0,089
2,238	2,5	-0,099
2,239	2,5	-0,108
2,24	2,5	-0,095
2,241	2,5	-0,064
2,242	2,5	-0,047
2,243	2,5	-0,049
2,244	2,5	-0,045
2,245	2,5	-0,084
2,246	2,5	-0,129
2,247	2,5	-0,141
2,248	2,5	-0,110
2,249	2,5	-0,094
2,25	2,5	-0,101
2,251	2,5	-0,073
2,252	2,5	-0,061
2,253	2,5	-0,082
2,254	2,5	-0,117
2,255	2,5	-0,118
2,256	2,5	-0,104
2,257	2,5	-0,115
2,258	2,5	-0,118
2,259	2,5	-0,083
2,26	2,5	-0,079
2,261	2,5	-0,077
2,262	2,5	-0,059
2,263	2,5	-0,065
2,264	2,5	-0,050
2,265	2,5	-0,047
2,266	2,5	-0,021
2,267	2,5	-0,033
2,268	2,5	-0,056
2,269	2,5	-0,051
2,27	2,5	-0,041
2,271	2,5	0,003
2,272	2,5	0,031
2,273	2,5	-0,002
2,274	2,5	-0,037
2,275	2,5	-0,006
2,276	2,5	-0,004
2,277	2,5	0,008
2,278	2,5	0,037
2,279	2,5	0,038
2,28	2,5	0,032
2,281	2,5	-0,004
2,282	2,5	-0,044
2,283	2,5	-0,053
2,284	2,5	-0,077
2,285	2,5	-0,109
2,286	2,5	-0,089
2,287	2,5	-0,074
2,288	2,5	-0,029
2,289	2,5	-0,007
2,29	2,5	-0,009
2,291	2,5	-0,010
2,292	2,5	-0,009
2,293	2,5	0,000
2,294	2,5	-0,024
2,295	2,5	-0,032
2,296	2,5	-0,021
2,297	2,5	-0,030
2,298	2,5	-0,042
2,299	2,5	-0,012
2,3	2,5	-0,020
2,301	2,5	-0,036
2,302	2,5	-0,046
2,303	2,5	-0,048
2,304	2,5	-0,059
2,305	2,5	-0,087
2,306	2,5	-0,084
2,307	2,5	-0,090
2,308	2,5	-0,069
2,309	2,5	-0,071
2,31	2,5	-0,061
2,311	2,5	-0,059
2,312	2,5	-0,106
2,313	2,5	-0,079
2,314	2,5	-0,078
2,315	2,5	-0,129
2,316	2,5	-0,119
2,317	2,4	-0,096
2,318	2,4	-0,128
2,319	2,4	-0,128
2,32	2,4	-0,052
2,321	2,4	-0,063
2,322	2,4	-0,098
2,323	2,4	-0,063
2,324	2,4	-0,089
2,325	2,4	-0,099
2,326	2,4	-0,072
2,327	2,4	-0,081
2,328	2,4	-0,064
2,329	2,4	-0,072
2,33	2,4	-0,069
2,331	2,4	-0,061
2,332	2,4	-0,044
2,333	2,4	-0,039
2,334	2,4	-0,080
2,335	2,4	-0,109
2,336	2,4	-0,109
2,337	2,4	-0,108
2,338	2,4	-0,131
2,339	2,4	-0,113
2,34	2,4	-0,098
2,341	2,4	-0,094
2,342	2,4	-0,058
2,343	2,4	0,036
2,344	2,4	0,054
2,345	2,3	0,055
2,346	2,3	0,075
2,347	2,3	0,046
2,348	2,3	0,067
2,349	2,3	0,111
2,35	2,3	0,112
2,351	2,3	0,073
2,352	2,3	0,087
2,353	2,3	0,101
2,354	2,3	0,091
2,355	2,3	0,086
2,356	2,3	0,076
2,357	2,3	0,059
2,358	2,3	0,050
2,359	2,3	0,007
2,36	2,3	-0,043
2,361	2,3	0,007
2,362	2,3	0,020
2,363	2,3	-0,006
2,364	2,3	0,038
2,365	2,3	0,042
2,366	2,3	0,011
2,367	2,3	0,022
2,368	2,3	0,066
2,369	2,3	0,079
2,37	2,3	0,039
2,371	2,3	0,024
2,372	2,2	0,026
2,373	2,2	0,019
2,374	2,2	0,030
2,375	2,2	0,010
2,376	2,2	-0,022
2,377	2,2	-0,002
2,378	2,2	-0,003
2,379	2,2	-0,045
2,38	2,2	-0,060
2,381	2,2	-0,018
2,382	2,2	0,035
2,383	2,2	0,046
2,384	2,2	0,031
2,385	2,2	0,000
2,386	2,2	-0,010
2,387	2,2	0,014
2,388	2,2	0,026
2,389	2,2	0,041
2,39	2,2	0,074
2,391	2,2	0,055
2,392	2,2	0,056
2,393	2,2	0,114
2,394	2,2	0,102
2,395	2,2	0,078
2,396	2,2	0,108
2,397	2,2	0,121
2,398	2,2	0,171
2,399	2,2	0,205
2,4	2,1	0,196
2,401	2,1	0,198
2,402	2,1	0,197
2,403	2,1	0,228
2,404	2,1	0,264
2,405	2,1	0,288
2,406	2,1	0,312
2,407	2,1	0,331
2,408	2,1	0,348
2,409	2,1	0,345
2,41	2,1	0,370
2,411	2,1	0,413
2,412	2,1	0,439
2,413	2,1	0,479
2,414	2,1	0,519
2,415	2,1	0,558
2,416	2,1	0,569
2,417	2,1	0,563
2,418	2,1	0,588
2,419	2,1	0,569
2,42	2,1	0,470
2,421	2,1	0,387
2,422	2,0	0,328
2,423	2,0	0,274
2,424	2,0	0,238
2,425	2,0	0,168
2,426	2,0	0,112
2,427	2,0	0,071
2,428	2,0	-0,008
2,429	2,0	-0,058
2,43	2,0	-0,075
2,431	2,0	-0,085
2,432	2,0	-0,063
2,433	2,0	-0,041
2,434	2,0	-0,069
2,435	2,0	-0,091
2,436	2,0	-0,097
2,437	2,0	-0,092
2,438	2,0	-0,094
2,439	2,0	-0,132
2,44	2,0	-0,133
2,441	2,0	-0,076
2,442	2,0	-0,056
2,443	2,0	-0,098
2,444	2,0	-0,118
2,445	2,0	-0,098
2,446	2,0	-0,096
2,447	2,0	-0,092
2,448	2,0	-0,099
2,449	2,0	-0,116
2,45	2,0	-0,120
2,451	2,0	-0,124
2,452	2,0	-0,100
2,453	2,0	-0,095
2,454	2,0	-0,134
2,455	2,0	-0,131
2,456	2,0	-0,130
2,457	2,0	-0,112
2,458	2,0	-0,084
2,459	2,0	-0,090
2,46	2,0	-0,074
2,461	2,0	-0,075
2,462	2,0	-0,082
2,463	2,0	-0,051
2,464	2,0	-0,023
2,465	2,0	-0,013
2,466	2,0	0,005
2,467	2,0	0,006
2,468	2,0	-0,008
2,469	2,0	-0,032
2,47	2,0	-0,019
2,471	2,0	0,002
2,472	2,0	0,000
2,473	2,0	-0,007
2,474	2,0	-0,035
2,475	2,0	-0,054
2,476	2,0	-0,066
2,477	2,0	-0,052
2,478	2,0	-0,016
2,479	2,0	-0,018
2,48	2,0	-0,039
2,481	2,0	-0,035
2,482	2,0	-0,039
2,483	2,0	-0,027
2,484	2,0	0,010
2,485	1,9	0,034
2,486	1,9	0,022
2,487	1,9	-0,019
2,488	1,9	-0,023
2,489	1,9	-0,007
2,49	1,9	-0,001
2,491	1,9	0,000
2,492	1,9	-0,003
2,493	1,9	-0,016
2,494	1,9	-0,034
2,495	1,9	-0,015
2,496	1,9	-0,013
2,497	1,9	-0,008
2,498	1,9	-0,017
2,499	1,9	-0,054
2,5	1,9	-0,057
2,501	1,9	-0,024
2,502	1,9	-0,015
2,503	1,9	-0,048
2,504	1,9	-0,063
2,505	1,9	-0,046
2,506	1,9	-0,016
2,507	1,9	-0,011
2,508	1,9	-0,003
2,509	1,8	0,001
2,51	1,8	-0,011
2,511	1,8	0,011
2,512	1,8	0,013
2,513	1,8	-0,024
2,514	1,8	-0,022
2,515	1,8	0,000
2,516	1,8	-0,022
2,517	1,8	-0,014
2,518	1,8	0,007
2,519	1,8	0,009
2,52	1,8	-0,006
2,521	1,8	-0,033
2,522	1,8	-0,044
2,523	1,8	-0,064
2,524	1,7	-0,068
2,525	1,7	-0,028
2,526	1,7	0,007
2,527	1,7	0,007
2,528	1,7	-0,016
2,529	1,7	-0,008
2,53	1,7	0,018
2,531	1,7	0,008
2,532	1,7	0,018
2,533	1,7	0,033
2,534	1,7	0,031
2,535	1,7	0,018
2,536	1,7	-0,021
2,537	1,7	-0,019
2,538	1,7	-0,023
2,539	1,7	-0,049
2,54	1,7	-0,036
2,541	1,7	-0,024
2,542	1,7	0,004
2,543	1,6	0,029
2,544	1,6	0,015
2,545	1,6	0,014
2,546	1,6	0,043
2,547	1,6	0,043
2,548	1,6	0,014
2,549	1,6	0,002
2,55	1,6	-0,011
2,551	1,6	-0,024
2,552	1,6	-0,031
2,553	1,6	0,006
2,554	1,6	0,019
2,555	1,6	0,001
2,556	1,6	0,030
2,557	1,6	0,039
2,558	1,6	0,021
2,559	1,6	0,024
2,56	1,5	0,032
2,561	1,5	0,029
2,562	1,5	0,030
2,563	1,5	0,012
2,564	1,5	0,018
2,565	1,5	0,044
2,566	1,5	0,057
2,567	1,5	0,053
2,568	1,5	0,041
2,569	1,5	-0,013
2,57	1,5	-0,039
2,571	1,5	-0,040
2,572	1,5	-0,051
2,573	1,5	-0,026
2,574	1,5	-0,023
2,575	1,5	0,001
2,576	1,5	0,031
2,577	1,5	0,028
2,578	1,5	0,009
2,579	1,5	0,007
2,58	1,5	-0,004
2,581	1,5	-0,042
2,582	1,5	-0,023
2,583	1,4	0,033
2,584	1,4	0,041
2,585	1,4	0,028
2,586	1,4	0,052
2,587	1,4	0,051
2,588	1,4	0,017
2,589	1,4	0,003
2,59	1,4	0,024
2,591	1,4	0,052
2,592	1,4	0,054
2,593	1,4	0,063
2,594	1,4	0,063
2,595	1,4	0,063
2,596	1,4	0,042
2,597	1,4	-0,006
2,598	1,4	0,002
2,599	1,4	0,035
2,6	1,4	0,043
2,601	1,4	0,034
2,602	1,4	0,036
2,603	1,4	0,054
2,604	1,4	0,063
2,605	1,4	0,081
2,606	1,4	0,096
2,607	1,4	0,061
2,608	1,4	0,048
2,609	1,4	0,052
2,61	1,4	0,036
2,611	1,4	0,046
2,612	1,4	0,064
2,613	1,4	0,051
2,614	1,4	0,059
2,615	1,4	0,086
2,616	1,4	0,059
2,617	1,3	0,046
2,618	1,3	0,058
2,619	1,3	0,025
2,62	1,3	0,016
2,621	1,3	0,032
2,622	1,3	0,060
2,623	1,3	0,105
2,624	1,3	0,081
2,625	1,3	0,066
2,626	1,3	0,106
2,627	1,3	0,088
2,628	1,3	0,061
2,629	1,3	0,072
2,63	1,3	0,089
2,631	1,3	0,104
2,632	1,3	0,096
2,633	1,3	0,065
2,634	1,3	0,052
2,635	1,3	0,089
2,636	1,3	0,096
2,637	1,3	0,083
2,638	1,3	0,083
2,639	1,3	0,094
2,64	1,3	0,123
2,641	1,3	0,115
2,642	1,3	0,108
2,643	1,3	0,115
2,644	1,3	0,103
2,645	1,3	0,109
2,646	1,3	0,128
2,647	1,3	0,116
2,648	1,2	0,068
2,649	1,2	0,052
2,65	1,2	0,094
2,651	1,2	0,105
2,652	1,2	0,094
2,653	1,2	0,084
2,654	1,2	0,075
2,655	1,2	0,084
2,656	1,2	0,118
2,657	1,2	0,171
2,658	1,2	0,160
2,659	1,2	0,106
2,66	1,2	0,106
2,661	1,2	0,128
2,662	1,2	0,113
2,663	1,2	0,120
2,664	1,2	0,148
2,665	1,2	0,134
2,666	1,2	0,128
2,667	1,2	0,091
2,668	1,2	0,074
2,669	1,2	0,081
2,67	1,2	0,074
2,671	1,2	0,145
2,672	1,2	0,168
2,673	1,2	0,150
2,674	1,2	0,160
2,675	1,2	0,124
2,676	1,1	0,087
2,677	1,1	0,104
2,678	1,1	0,106
2,679	1,1	0,101
2,68	1,1	0,109
2,681	1,1	0,085
2,682	1,1	0,089
2,683	1,1	0,131
2,684	1,1	0,138
2,685	1,1	0,144
2,686	1,1	0,154
2,687	1,1	0,112
2,688	1,1	0,088
2,689	1,1	0,083
2,69	1,1	0,104
2,691	1,1	0,126
2,692	1,1	0,104
2,693	1,1	0,074
2,694	1,1	0,049
2,695	1,1	0,048
2,696	1,1	0,018
2,697	1,1	0,001
2,698	1,1	0,028
2,699	1,1	0,059
2,7	1,1	0,057
2,701	1,1	0,045
2,702	1,1	0,037
2,703	1,1	0,032
2,704	1,1	0,061
2,705	1,1	0,066
2,706	1,1	0,066
2,707	1,1	0,070
2,708	1,1	0,063
2,709	1,1	0,065
2,71	1,1	0,061
2,711	1,0	0,052
2,712	1,0	0,046
2,713	1,0	0,029
2,714	1,0	0,009
2,715	1,0	0,008
2,716	1,0	0,002
2,717	1,0	-0,025
2,718	1,0	-0,058
2,719	1,0	-0,070
2,72	1,0	-0,035
2,721	1,0	-0,027
2,722	1,0	-0,065
2,723	1,0	-0,071
2,724	1,0	-0,054
2,725	1,0	-0,073
2,726	1,0	-0,070
2,727	1,0	-0,031
2,728	1,0	0,001
2,729	1,0	0,010
2,73	1,0	-0,016
2,731	1,0	-0,064
2,732	1,0	-0,072
2,733	1,0	-0,036
2,734	1,0	-0,014
2,735	1,0	-0,004
2,736	1,0	-0,021
2,737	1,0	-0,070
2,738	1,0	-0,077
2,739	1,0	-0,033
2,74	1,0	-0,044
2,741	1,0	-0,038
2,742	1,0	-0,039
2,743	1,0	-0,089
2,744	1,0	-0,085
2,745	1,0	-0,077
2,746	1,0	-0,079
2,747	1,0	-0,085
2,748	1,0	-0,052
2,749	1,0	-0,038
2,75	1,0	-0,037
2,751	1,0	-0,029
2,752	0,9	-0,059
2,753	0,9	-0,049
2,754	0,9	-0,047
2,755	0,9	-0,082
2,756	0,9	-0,114
2,757	0,9	-0,099
2,758	0,9	-0,083
2,759	0,9	-0,086
2,76	0,9	-0,068
2,761	0,9	-0,057
2,762	0,9	-0,090
2,763	0,9	-0,118
2,764	0,9	-0,106
2,765	0,9	-0,092
2,766	0,9	-0,051
2,767	0,9	-0,033
2,768	0,9	-0,042
2,769	0,9	-0,053
2,77	0,9	-0,073
2,771	0,9	-0,071
2,772	0,9	-0,054
2,773	0,9	-0,033
2,774	0,9	-0,041
2,775	0,9	-0,057
2,776	0,9	-0,068
2,777	0,9	-0,073
2,778	0,9	-0,078
2,779	0,9	-0,090
2,78	0,9	-0,086
2,781	0,9	-0,083
2,782	0,9	-0,080
2,783	0,9	-0,073
2,784	0,9	-0,069
2,785	0,9	-0,091
2,786	0,9	-0,091
2,787	0,9	-0,066
2,788	0,9	-0,086
2,789	0,9	-0,115
2,79	0,9	-0,109
2,791	0,9	-0,091
2,792	0,9	-0,104
2,793	0,9	-0,088
2,794	0,9	-0,066
2,795	0,9	-0,092
2,796	0,8	-0,086
2,797	0,8	-0,071
2,798	0,8	-0,069
2,799	0,8	-0,061
2,8	0,8	-0,057
2,801	0,8	-0,071
2,802	0,8	-0,092
2,803	0,8	-0,114
2,804	0,8	-0,116
2,805	0,8	-0,110
2,806	0,8	-0,096
2,807	0,8	-0,066
2,808	0,8	-0,052
2,809	0,8	-0,080
2,81	0,8	-0,107
2,811	0,8	-0,100
2,812	0,8	-0,083
2,813	0,8	-0,059
2,814	0,8	-0,093
2,815	0,8	-0,119
2,816	0,8	-0,106
2,817	0,8	-0,114
2,818	0,8	-0,099
2,819	0,8	-0,046
2,82	0,8	-0,058
2,821	0,8	-0,119
2,822	0,8	-0,121
2,823	0,8	-0,106
2,824	0,8	-0,094
2,825	0,8	-0,072
2,826	0,8	-0,049
2,827	0,8	-0,049
2,828	0,8	-0,040
2,829	0,8	-0,036
2,83	0,8	-0,061
2,831	0,8	-0,069
2,832	0,7	-0,104
2,833	0,7	-0,099
2,834	0,7	-0,060
2,835	0,7	-0,066
2,836	0,7	-0,071
2,837	0,7	-0,068
2,838	0,7	-0,074
2,839	0,7	-0,089
2,84	0,7	-0,117
2,841	0,7	-0,146
2,842	0,7	-0,106
2,843	0,7	-0,076
2,844	0,7	-0,095
2,845	0,7	-0,105
2,846	0,7	-0,086
2,847	0,7	-0,069
2,848	0,7	-0,069
2,849	0,7	-0,046
2,85	0,7	-0,056
2,851	0,7	-0,074
2,852	0,7	-0,069
2,853	0,7	-0,065
2,854	0,7	-0,074
2,855	0,7	-0,078
2,856	0,7	-0,066
2,857	0,7	-0,039
2,858	0,7	-0,043
2,859	0,7	-0,079
2,86	0,7	-0,072
2,861	0,7	-0,055
2,862	0,7	-0,075
2,863	0,7	-0,099
2,864	0,7	-0,085
2,865	0,7	-0,055
2,866	0,7	-0,051
2,867	0,7	-0,063
2,868	0,7	-0,092
2,869	0,7	-0,116
2,87	0,7	-0,096
2,871	0,7	-0,073
2,872	0,7	-0,034
2,873	0,7	-0,019
2,874	0,7	-0,030
2,875	0,7	-0,044
2,876	0,7	-0,076
2,877	0,7	-0,072
2,878	0,7	-0,077
2,879	0,7	-0,085
2,88	0,7	-0,073
2,881	0,7	-0,071
2,882	0,7	-0,051
2,883	0,7	-0,040
2,884	0,7	-0,046
2,885	0,7	-0,034
2,886	0,7	-0,010
2,887	0,7	-0,003
2,888	0,7	-0,047
2,889	0,7	-0,086
2,89	0,7	-0,086
2,891	0,7	-0,088
2,892	0,7	-0,101
2,893	0,7	-0,113
2,894	0,7	-0,094
2,895	0,7	-0,083
2,896	0,7	-0,101
2,897	0,7	-0,088
2,898	0,7	-0,061
2,899	0,7	-0,051
2,9	0,7	-0,054
2,901	0,7	-0,058
2,902	0,7	-0,079
2,903	0,7	-0,109
2,904	0,7	-0,072
2,905	0,7	-0,054
2,906	0,7	-0,070
2,907	0,7	-0,041
2,908	0,7	-0,020
2,909	0,7	-0,036
2,91	0,7	-0,026
2,911	0,7	-0,024
2,912	0,7	-0,048
2,913	0,7	-0,061
2,914	0,7	-0,082
2,915	0,7	-0,067
2,916	0,7	-0,063
2,917	0,7	-0,059
2,918	0,7	-0,053
2,919	0,7	-0,085
2,92	0,7	-0,102
2,921	0,7	-0,095
2,922	0,7	-0,090
2,923	0,7	-0,101
2,924	0,7	-0,074
2,925	0,7	-0,031
2,926	0,7	-0,007
2,927	0,6	-0,004
2,928	0,6	-0,033
2,929	0,6	-0,050
2,93	0,6	-0,057
2,931	0,6	-0,091
2,932	0,6	-0,119
2,933	0,6	-0,103
2,934	0,6	-0,083
2,935	0,6	-0,084
2,936	0,6	-0,103
2,937	0,6	-0,085
2,938	0,6	-0,035
2,939	0,6	0,001
2,94	0,6	0,001
2,941	0,6	-0,039
2,942	0,6	-0,087
2,943	0,6	-0,115
2,944	0,6	-0,090
2,945	0,6	-0,081
2,946	0,6	-0,090
2,947	0,6	-0,080
2,948	0,6	-0,050
2,949	0,6	-0,041
2,95	0,6	-0,058
2,951	0,6	-0,049
2,952	0,6	-0,050
2,953	0,6	-0,075
2,954	0,6	-0,089
2,955	0,6	-0,078
2,956	0,6	-0,095
2,957	0,6	-0,085
2,958	0,6	-0,063
2,959	0,6	-0,077
2,96	0,6	-0,082
2,961	0,6	-0,074
2,962	0,5	-0,063
2,963	0,5	-0,051
2,964	0,5	-0,048
2,965	0,5	-0,033
2,966	0,5	-0,029
2,967	0,5	-0,061
2,968	0,5	-0,072
2,969	0,5	-0,059
2,97	0,5	-0,039
2,971	0,5	-0,048
2,972	0,5	-0,079
2,973	0,5	-0,074
2,974	0,5	-0,042
2,975	0,5	-0,041
2,976	0,5	-0,071
2,977	0,5	-0,055
2,978	0,5	-0,023
2,979	0,5	-0,009
2,98	0,5	-0,028
2,981	0,5	-0,046
2,982	0,5	-0,024
2,983	0,5	-0,030
2,984	0,5	-0,036
2,985	0,5	-0,014
2,986	0,5	0,009
2,987	0,5	-0,014
2,988	0,5	-0,037
2,989	0,5	-0,029
2,99	0,5	-0,025
2,991	0,5	-0,022
2,992	0,5	-0,045
2,993	0,5	-0,066
2,994	0,5	-0,041
2,995	0,5	0,001
2,996	0,5	-0,026
2,997	0,5	-0,061
2,998	0,5	-0,054
2,999	0,5	-0,085
3	0,5	-0,061
3,001	0,4	-0,003
3,002	0,4	-0,006
3,003	0,4	0,013
3,004	0,4	0,044
3,005	0,4	0,044
3,006	0,4	0,029
3,007	0,4	0,007
3,008	0,4	0,000
3,009	0,4	0,011
3,01	0,4	0,014
3,011	0,4	-0,014
3,012	0,4	-0,046
3,013	0,4	-0,037
3,014	0,4	-0,046
3,015	0,4	-0,076
3,016	0,4	-0,050
3,017	0,4	-0,003
3,018	0,4	-0,003
3,019	0,4	-0,024
3,02	0,4	-0,016
3,021	0,4	-0,021
3,022	0,4	-0,060
3,023	0,4	-0,077
3,024	0,4	-0,052
3,025	0,4	-0,042
3,026	0,4	-0,046
3,027	0,4	-0,051
3,028	0,4	-0,069
3,029	0,4	-0,074
3,03	0,4	-0,042
3,031	0,4	-0,009
3,032	0,4	-0,016
3,033	0,4	-0,033
3,034	0,4	-0,015
3,035	0,4	-0,007
3,036	0,4	-0,030
3,037	0,4	-0,047
3,038	0,4	-0,041
3,039	0,4	-0,022
3,04	0,4	-0,028
3,041	0,4	-0,022
3,042	0,4	0,003
3,043	0,4	0,014
3,044	0,4	0,018
3,045	0,4	0,010
3,046	0,4	-0,032
3,047	0,4	-0,058
3,048	0,4	-0,052
3,049	0,4	-0,048
3,05	0,4	-0,037
3,051	0,4	-0,010
3,052	0,4	-0,025
3,053	0,4	-0,032
3,054	0,4	-0,018
3,055	0,4	-0,014
3,056	0,4	-0,039
3,057	0,4	-0,061
3,058	0,3	-0,035
3,059	0,3	-0,022
3,06	0,3	-0,035
3,061	0,3	-0,044
3,062	0,3	-0,033
3,063	0,3	-0,032
3,064	0,3	-0,022
3,065	0,3	-0,001
3,066	0,3	0,017
3,067	0,3	0,022
3,068	0,3	0,007
3,069	0,3	-0,014
3,07	0,3	-0,026
3,071	0,3	-0,026
3,072	0,3	-0,003
3,073	0,3	-0,004
3,074	0,3	-0,037
3,075	0,3	-0,037
3,076	0,3	-0,027
3,077	0,3	-0,031
3,078	0,3	-0,039
3,079	0,3	-0,034
3,08	0,3	-0,020
3,081	0,3	-0,021
3,082	0,3	-0,047
3,083	0,3	-0,076
3,084	0,3	-0,043
3,085	0,3	-0,007
3,086	0,3	-0,006
3,087	0,3	-0,015
3,088	0,3	-0,037
3,089	0,3	-0,031
3,09	0,3	-0,039
3,091	0,3	-0,024
3,092	0,3	-0,001
3,093	0,3	-0,024
3,094	0,3	-0,004
3,095	0,3	0,020
3,096	0,3	-0,006
3,097	0,3	-0,013
3,098	0,3	-0,009
3,099	0,3	-0,006
3,1	0,3	-0,026
3,101	0,3	-0,021
3,102	0,3	-0,004
3,103	0,3	-0,039
3,104	0,3	-0,026
3,105	0,3	-0,002
3,106	0,3	-0,026
3,107	0,3	-0,069
3,108	0,3	-0,089
3,109	0,3	-0,079
3,11	0,3	-0,070
3,111	0,3	-0,074
3,112	0,3	-0,076
3,113	0,3	-0,046
3,114	0,3	-0,044
3,115	0,3	-0,056
3,116	0,3	-0,067
3,117	0,3	-0,058
3,118	0,3	-0,021
3,119	0,3	-0,008
3,12	0,3	-0,009
3,121	0,3	0,012
3,122	0,3	0,021
3,123	0,3	-0,003
3,124	0,3	-0,036
3,125	0,3	-0,058
3,126	0,3	-0,025
3,127	0,3	0,005
3,128	0,3	0,003
3,129	0,3	0,006
3,13	0,3	0,003
3,131	0,3	-0,013
3,132	0,3	-0,029
3,133	0,3	-0,024
3,134	0,3	-0,019
3,135	0,3	-0,018
3,136	0,3	-0,018
3,137	0,3	-0,046
3,138	0,3	-0,064
3,139	0,3	-0,081
3,14	0,3	-0,093
3,141	0,3	-0,036
3,142	0,3	0,006
3,143	0,3	-0,016
3,144	0,3	-0,038
3,145	0,3	-0,025
3,146	0,3	0,015
3,147	0,3	0,014
3,148	0,3	-0,018
3,149	0,2	-0,011
3,15	0,2	0,005
3,151	0,2	0,003
3,152	0,2	-0,015
3,153	0,2	-0,059
3,154	0,2	-0,057
3,155	0,2	-0,054
3,156	0,2	-0,108
3,157	0,2	-0,087
3,158	0,2	-0,021
3,159	0,2	-0,030
3,16	0,2	-0,046
3,161	0,2	-0,010
3,162	0,2	-0,002
3,163	0,2	-0,050
3,164	0,2	-0,059
3,165	0,2	-0,023
3,166	0,2	0,016
3,167	0,2	0,017
3,168	0,2	0,002
3,169	0,2	-0,007
3,17	0,2	-0,025
3,171	0,2	-0,007
3,172	0,2	0,005
3,173	0,2	-0,016
3,174	0,2	-0,033
3,175	0,2	-0,057
3,176	0,2	-0,070
3,177	0,2	-0,037
3,178	0,2	-0,018
3,179	0,2	-0,038
3,18	0,2	-0,043
3,181	0,2	-0,022
3,182	0,2	-0,012
3,183	0,2	-0,030
3,184	0,2	-0,052
3,185	0,2	-0,086
3,186	0,2	-0,099
3,187	0,2	-0,053
3,188	0,2	-0,024
3,189	0,2	-0,059
3,19	0,2	-0,086
3,191	0,2	-0,082
3,192	0,2	-0,063
3,193	0,2	-0,063
3,194	0,2	-0,076
3,195	0,2	-0,034
3,196	0,2	-0,011
3,197	0,2	-0,013
3,198	0,2	-0,011
3,199	0,2	-0,010
3,2	0,2	0,005
3,201	0,2	0,004
3,202	0,2	0,005
3,203	0,2	-0,020
3,204	0,2	-0,037
3,205	0,2	-0,023
3,206	0,2	-0,014
3,207	0,2	-0,029
3,208	0,2	-0,048
3,209	0,2	-0,052
3,21	0,2	-0,039
3,211	0,2	-0,039
3,212	0,2	-0,047
3,213	0,2	-0,049
3,214	0,2	-0,058
3,215	0,2	-0,017
3,216	0,2	-0,003
3,217	0,2	-0,024
3,218	0,2	-0,020
3,219	0,2	-0,019
3,22	0,2	-0,009
3,221	0,2	-0,028
3,222	0,2	-0,061
3,223	0,2	-0,059
3,224	0,2	-0,070
3,225	0,2	-0,070
3,226	0,2	-0,033
3,227	0,2	-0,007
3,228	0,2	-0,006
3,229	0,2	-0,024
3,23	0,2	-0,043
3,231	0,2	-0,033
3,232	0,2	-0,032
3,233	0,2	-0,048
3,234	0,2	-0,059
3,235	0,2	-0,061
3,236	0,2	-0,052
3,237	0,2	-0,028
3,238	0,2	-0,013
3,239	0,2	-0,013
3,24	0,2	-0,029
3,241	0,2	-0,036
3,242	0,2	-0,016
3,243	0,1	0,004
3,244	0,1	0,026
3,245	0,1	0,002
3,246	0,1	-0,029
3,247	0,1	-0,021
3,248	0,1	-0,011
3,249	0,1	-0,039
3,25	0,1	-0,062
3,251	0,1	-0,044
3,252	0,1	-0,041
3,253	0,1	-0,016
3,254	0,1	-0,003
3,255	0,1	-0,025
3,256	0,1	-0,039
3,257	0,1	-0,031
3,258	0,1	-0,043
3,259	0,1	-0,079
3,26	0,1	-0,047
3,261	0,1	-0,036
3,262	0,1	-0,054
3,263	0,1	-0,066
3,264	0,1	-0,076
3,265	0,1	-0,040
3,266	0,1	-0,021
3,267	0,1	-0,051
3,268	0,1	-0,043
3,269	0,1	-0,043
3,27	0,1	-0,078
3,271	0,1	-0,061
3,272	0,1	-0,054
3,273	0,1	-0,079
3,274	0,1	-0,095
3,275	0,1	-0,063
3,276	0,1	-0,013
3,277	0,1	-0,006
3,278	0,1	-0,005
3,279	0,1	0,003
3,28	0,1	-0,026
3,281	0,1	-0,046
3,282	0,1	-0,059
3,283	0,1	-0,064
3,284	0,1	-0,068
3,285	0,1	-0,088
3,286	0,1	-0,066
3,287	0,1	-0,031
3,288	0,1	-0,002
3,289	0,1	0,009
3,29	0,1	0,007
3,291	0,1	-0,013
3,292	0,1	-0,040
3,293	0,1	-0,021
3,294	0,1	0,001
3,295	0,1	-0,001
3,296	0,1	-0,013
3,297	0,1	-0,022
3,298	0,1	-0,024
3,299	0,1	-0,026
3,3	0,1	-0,045
3,301	0,1	-0,045
3,302	0,1	-0,043
3,303	0,1	-0,057
3,304	0,1	-0,037
3,305	0,1	-0,013
3,306	0,1	0,011
3,307	0,1	0,045
3,308	0,1	0,059
3,309	0,1	0,037
3,31	0,1	0,022
3,311	0,1	0,008
3,312	0,1	-0,024
3,313	0,1	-0,030
3,314	0,1	-0,069
3,315	0,1	-0,100
3,316	0,1	-0,079
3,317	0,1	-0,063
3,318	0,1	-0,045
3,319	0,1	-0,056
3,32	0,1	-0,036
3,321	0,1	0,019
3,322	0,1	0,021
3,323	0,1	0,025
3,324	0,1	0,018
3,325	0,1	-0,022
3,326	0,1	-0,016
3,327	0,1	-0,031
3,328	0,1	-0,036
3,329	0,1	-0,004
3,33	0,1	-0,023
3,331	0,1	-0,029
3,332	0,1	-0,006
3,333	0,1	0,020
3,334	0,1	0,011
3,335	0,1	-0,011
3,336	0,1	-0,018
3,337	0,0	-0,026
3,338	0,0	-0,047
3,339	0,0	-0,040
3,34	0,0	-0,018
3,341	0,0	0,002
3,342	0,0	0,039
3,343	0,0	0,040
3,344	0,0	0,014
3,345	0,0	-0,005
3,346	0,0	-0,011
3,347	0,0	-0,039
3,348	0,0	-0,019
3,349	0,0	0,034
3,35	0,0	0,001
3,351	0,0	-0,032
3,352	0,0	-0,029
3,353	0,0	-0,013
3,354	0,0	-0,013
3,355	0,0	-0,048
3,356	0,0	-0,030
3,357	0,0	0,023
3,358	0,0	0,042
3,359	0,0	0,036
3,36	0,0	0,017
3,361	0,0	0,028
3,362	0,0	0,016
3,363	0,0	-0,006
3,364	0,0	0,019
3,365	0,0	0,015
3,366	0,0	-0,014
3,367	0,0	-0,021
3,368	0,0	-0,010
3,369	0,0	-0,009
3,37	0,0	0,006
3,371	0,0	0,026
3,372	0,0	0,009
3,373	0,0	0,001
3,374	0,0	0,019
3,375	0,0	0,019
3,376	0,0	-0,009
3,377	0,0	-0,035
3,378	0,0	-0,074
3,379	0,0	-0,092
3,38	0,0	-0,045
3,381	0,0	-0,007
3,382	0,0	-0,028
3,383	0,0	-0,076
3,384	0,0	-0,104
3,385	0,0	-0,106
3,386	0,0	-0,086
3,387	0,0	-0,073
3,388	0,0	-0,069
3,389	0,0	-0,068
3,39	0,0	-0,054
3,391	0,0	-0,029
3,392	0,0	-0,044
3,393	0,0	-0,058
3,394	0,0	-0,072
3,395	0,0	-0,094
3,396	0,0	-0,116
3,397	0,0	-0,142
3,398	0,0	-0,127
3,399	0,0	-0,097
3,4	0,0	-0,108
3,401	0,0	-0,124
3,402	0,0	-0,107
3,403	0,0	-0,086
3,404	0,0	-0,084
3,405	0,0	-0,101
3,406	0,0	-0,123
3,407	0,0	-0,096
3,408	0,0	-0,045
3,409	0,0	-0,030
3,41	0,0	-0,026
3,411	0,0	-0,048
3,412	0,0	-0,044
3,413	0,0	-0,035
3,414	0,0	-0,043
3,415	0,0	-0,041
3,416	0,0	-0,045
3,417	0,0	-0,024
3,418	0,0	-0,018
3,419	0,0	-0,028
3,42	0,0	-0,031
3,421	0,0	-0,027
3,422	0,0	-0,016
3,423	0,0	-0,037
3,424	0,0	-0,035
3,425	0,0	-0,022
3,426	0,0	-0,036
3,427	0,0	-0,055
3,428	0,0	-0,065
3,429	0,0	-0,066
3,43	0,0	-0,077
3,431	-0,0	-0,057
3,432	-0,0	-0,033
3,433	-0,0	-0,049
3,434	-0,0	-0,068
3,435	-0,0	-0,065
3,436	-0,0	-0,076
3,437	-0,0	-0,081
3,438	-0,0	-0,066
3,439	-0,0	-0,052
3,44	-0,0	-0,049
3,441	-0,0	-0,046
3,442	-0,0	-0,018
3,443	-0,0	-0,014
3,444	-0,0	-0,033
3,445	-0,0	-0,030
3,446	-0,0	-0,019
3,447	-0,0	-0,030
3,448	-0,0	-0,042
3,449	-0,0	-0,045
3,45	-0,0	-0,034
3,451	-0,0	-0,021
3,452	-0,0	-0,032
3,453	-0,0	-0,022
3,454	-0,0	-0,016
3,455	-0,0	-0,013
3,456	-0,0	-0,030
3,457	-0,0	-0,071
3,458	-0,0	-0,068
3,459	-0,0	-0,046
3,46	-0,0	-0,038
3,461	-0,0	-0,045
3,462	-0,0	-0,042
3,463	-0,0	0,004
3,464	-0,0	0,028
3,465	-0,0	0,037
3,466	-0,0	0,063
3,467	-0,0	0,073
3,468	-0,0	0,083
3,469	-0,0	0,079
3,47	-0,0	0,090
3,471	-0,0	0,124
3,472	-0,0	0,124
3,473	-0,0	0,144
3,474	-0,0	0,170
3,475	-0,0	0,189
3,476	-0,0	0,196
3,477	-0,0	0,193
3,478	-0,0	0,234
3,479	-0,0	0,283
3,48	-0,0	0,301
3,481	-0,0	0,314
3,482	-0,0	0,384
3,483	-0,0	0,444
3,484	-0,0	0,468
3,485	-0,0	0,481
3,486	-0,0	0,491
3,487	-0,0	0,498
3,488	-0,0	0,531
3,489	-0,0	0,573
3,49	-0,0	0,560
3,491	-0,0	0,527
3,492	-0,0	0,404
3,493	-0,0	0,273
3,494	-0,0	0,214
3,495	-0,0	0,152
3,496	-0,0	0,106
3,497	-0,0	0,064
3,498	-0,0	0,026
3,499	-0,0	-0,003
3,5	-0,0	-0,043
3,501	-0,0	-0,074
3,502	-0,0	-0,099
3,503	-0,0	-0,092
3,504	-0,0	-0,065
3,505	-0,0	-0,085
3,506	-0,0	-0,111
3,507	-0,0	-0,162
3,508	-0,0	-0,186
3,509	-0,0	-0,167
3,51	-0,0	-0,165
3,511	-0,0	-0,136
3,512	-0,0	-0,119
3,513	-0,0	-0,111
3,514	-0,0	-0,088
3,515	-0,0	-0,093
3,516	0,0	-0,143
3,517	0,0	-0,165
3,518	0,0	-0,174
3,519	0,0	-0,184
3,52	0,0	-0,160
3,521	0,0	-0,163
3,522	0,0	-0,164
3,523	0,0	-0,159
3,524	0,0	-0,146
3,525	0,0	-0,123
3,526	0,0	-0,090
3,527	0,0	-0,085
3,528	0,0	-0,112
3,529	0,0	-0,099
3,53	0,0	-0,072
3,531	0,0	-0,073
3,532	0,0	-0,098
3,533	0,0	-0,091
3,534	0,0	-0,077
3,535	0,0	-0,109
3,536	0,1	-0,123
3,537	0,1	-0,107
3,538	0,1	-0,091
3,539	0,1	-0,090
3,54	0,1	-0,124
3,541	0,1	-0,131
3,542	0,1	-0,108
3,543	0,1	-0,107
3,544	0,1	-0,101
3,545	0,1	-0,109
3,546	0,1	-0,089
3,547	0,1	-0,084
3,548	0,1	-0,105
3,549	0,1	-0,079
3,55	0,1	-0,079
3,551	0,1	-0,080
3,552	0,1	-0,065
3,553	0,1	-0,083
3,554	0,1	-0,082
3,555	0,1	-0,068
3,556	0,1	-0,086
3,557	0,1	-0,103
3,558	0,1	-0,111
3,559	0,1	-0,106
3,56	0,1	-0,097
3,561	0,1	-0,063
3,562	0,1	-0,053
3,563	0,1	-0,079
3,564	0,1	-0,063
3,565	0,1	-0,041
3,566	0,1	-0,019
3,567	0,1	-0,029
3,568	0,1	-0,049
3,569	0,1	-0,045
3,57	0,1	-0,051
3,571	0,1	-0,079
3,572	0,1	-0,064
3,573	0,1	-0,028
3,574	0,1	-0,023
3,575	0,1	-0,035
3,576	0,1	-0,062
3,577	0,1	-0,056
3,578	0,1	-0,050
3,579	0,1	-0,052
3,58	0,1	-0,044
3,581	0,1	-0,027
3,582	0,0	-0,035
3,583	0,0	-0,058
3,584	0,0	-0,056
3,585	0,0	-0,066
3,586	0,0	-0,049
3,587	0,0	-0,024
3,588	0,0	-0,066
3,589	0,0	-0,079
3,59	0,0	-0,080
3,591	0,0	-0,061
3,592	0,0	-0,028
3,593	0,0	-0,056
3,594	0,0	-0,105
3,595	0,0	-0,098
3,596	0,0	-0,061
3,597	0,0	-0,058
3,598	0,0	-0,075
3,599	0,0	-0,080
3,6	0,0	-0,049
3,601	0,0	-0,048
3,602	0,0	-0,046
3,603	0,0	-0,028
3,604	0,0	-0,042
3,605	0,0	-0,037
3,606	0,0	-0,030
3,607	0,0	-0,039
3,608	0,0	-0,044
3,609	0,0	-0,074
3,61	0,0	-0,091
3,611	0,0	-0,061
3,612	0,0	-0,048
3,613	0,0	-0,038
3,614	0,0	-0,028
3,615	0,0	-0,034
3,616	0,0	-0,047
3,617	0,0	-0,070
3,618	0,0	-0,049
3,619	0,0	-0,018
3,62	0,0	-0,018
3,621	0,0	-0,043
3,622	0,0	-0,054
3,623	0,0	-0,023
3,624	0,0	-0,015
3,625	0,0	-0,037
3,626	-0,0	-0,018
3,627	-0,0	0,005
3,628	-0,0	-0,019
3,629	-0,0	-0,052
3,63	-0,0	-0,072
3,631	-0,0	-0,069
3,632	-0,0	-0,061
3,633	-0,0	-0,039
3,634	-0,0	-0,011
3,635	-0,0	0,013
3,636	-0,0	0,030
3,637	-0,0	0,010
3,638	-0,0	-0,011
3,639	-0,0	-0,006
3,64	-0,0	-0,009
3,641	-0,0	-0,016
3,642	-0,0	0,003
3,643	-0,0	-0,001
3,644	-0,0	-0,004
3,645	-0,0	-0,003
3,646	-0,0	-0,036
3,647	-0,0	-0,037
3,648	-0,0	-0,036
3,649	-0,0	-0,071
3,65	-0,0	-0,057
3,651	-0,0	-0,014
3,652	-0,0	-0,004
3,653	-0,0	-0,004
3,654	-0,0	-0,006
3,655	-0,0	-0,011
3,656	-0,0	-0,021
3,657	-0,0	-0,016
3,658	-0,0	-0,007
3,659	-0,0	-0,011
3,66	-0,0	0,003
3,661	-0,0	0,022
3,662	-0,0	0,023
3,663	-0,0	-0,004
3,664	-0,0	-0,021
3,665	-0,0	-0,013
3,666	0,0	0,015
3,667	0,0	0,022
3,668	0,0	0,004
3,669	0,0	0,011
3,67	0,0	0,019
3,671	0,0	0,017
3,672	0,0	-0,003
3,673	0,0	-0,031
3,674	0,0	-0,025
3,675	0,0	0,013
3,676	0,0	0,024
3,677	0,0	0,004
3,678	0,0	-0,007
3,679	0,0	-0,022
3,68	0,0	-0,014
3,681	0,0	0,029
3,682	0,0	0,046
3,683	0,0	0,034
3,684	0,0	0,039
3,685	0,0	0,073
3,686	0,0	0,089
3,687	0,0	0,043
3,688	0,0	0,031
3,689	0,0	0,039
3,69	0,0	0,015
3,691	0,0	-0,024
3,692	0,0	-0,038
3,693	0,0	-0,004
3,694	0,0	0,013
3,695	0,0	0,028
3,696	0,0	0,029
3,697	0,0	0,004
3,698	0,0	0,017
3,699	0,0	0,048
3,7	0,0	0,069
3,701	0,0	0,063
3,702	0,0	0,036
3,703	0,0	0,058
3,704	0,0	0,076
3,705	0,0	0,076
3,706	0,0	0,091
3,707	0,0	0,081
3,708	0,0	0,088
3,709	0,0	0,079
3,71	0,0	0,060
3,711	0,0	0,053
3,712	0,0	0,031
3,713	0,0	0,053
3,714	0,0	0,075
3,715	0,0	0,104
3,716	0,0	0,115
3,717	0,0	0,087
3,718	0,0	0,072
3,719	0,0	0,080
3,72	0,0	0,100
3,721	0,0	0,098
3,722	0,0	0,103
3,723	0,0	0,114
3,724	0,0	0,117
3,725	0,0	0,115
3,726	0,0	0,109
3,727	0,0	0,114
3,728	0,0	0,115
3,729	0,0	0,109
3,73	0,0	0,096
3,731	0,0	0,076
3,732	0,0	0,077
3,733	0,0	0,070
3,734	0,0	0,043
3,735	0,0	0,067
3,736	0,0	0,083
3,737	0,0	0,068
3,738	0,0	0,069
3,739	0,0	0,071
3,74	0,0	0,099
3,741	0,0	0,118
3,742	0,0	0,114
3,743	0,0	0,111
3,744	0,0	0,102
3,745	0,0	0,089
3,746	0,0	0,092
3,747	0,0	0,093
3,748	0,0	0,084
3,749	0,0	0,079
3,75	0,0	0,083
3,751	0,0	0,095
3,752	0,0	0,071
3,753	0,0	0,040
3,754	0,0	0,044
3,755	0,0	0,062
3,756	0,0	0,071
3,757	0,0	0,072
3,758	0,0	0,072
3,759	0,0	0,079
3,76	0,0	0,075
3,761	0,0	0,057
3,762	0,0	0,074
3,763	0,0	0,068
3,764	0,0	0,048
3,765	0,0	0,053
3,766	0,0	0,028
3,767	-0,0	0,027
3,768	-0,0	0,039
3,769	0,0	0,008
3,77	0,0	-0,026
3,771	0,0	-0,011
3,772	0,0	0,026
3,773	0,0	0,075
3,774	0,0	0,105
3,775	0,0	0,096
3,776	0,0	0,083
3,777	0,0	0,051
3,778	0,0	0,028
3,779	0,0	0,054
3,78	0,0	0,042
3,781	0,0	0,006
3,782	0,0	0,026
3,783	0,0	0,010
3,784	0,0	-0,001
3,785	0,0	0,011
3,786	0,0	-0,003
3,787	0,0	-0,023
3,788	0,0	-0,014
3,789	0,0	0,019
3,79	0,0	0,011
3,791	0,0	-0,001
3,792	0,0	-0,031
3,793	0,0	-0,047
3,794	0,0	-0,023
3,795	0,0	-0,040
3,796	0,0	-0,046
3,797	0,0	-0,046
3,798	0,0	-0,044
3,799	0,0	-0,037
3,8	0,0	-0,030
3,801	0,0	-0,018
3,802	0,0	-0,035
3,803	0,0	-0,043
3,804	0,0	-0,039
3,805	0,0	-0,041
3,806	0,0	-0,025
3,807	0,0	-0,040
3,808	0,0	-0,082
3,809	0,0	-0,119
3,81	0,0	-0,128
3,811	0,0	-0,104
3,812	0,0	-0,098
3,813	0,0	-0,098
3,814	0,0	-0,090
3,815	0,0	-0,064
3,816	0,0	-0,071
3,817	0,0	-0,094
3,818	0,0	-0,106
3,819	0,0	-0,114
3,82	0,0	-0,101
3,821	0,0	-0,126
3,822	0,0	-0,106
3,823	0,0	-0,083
3,824	0,0	-0,124
3,825	0,0	-0,092
3,826	0,0	-0,065
3,827	0,0	-0,083
3,828	0,0	-0,088
3,829	0,0	-0,080
3,83	0,0	-0,052
3,831	0,0	-0,060
3,832	0,0	-0,103
3,833	0,0	-0,118
3,834	0,0	-0,100
3,835	0,0	-0,103
3,836	0,0	-0,099
3,837	0,0	-0,109
3,838	0,0	-0,149
3,839	0,0	-0,155
3,84	0,0	-0,122
3,841	0,0	-0,078
3,842	0,0	-0,062
3,843	0,0	-0,068
3,844	0,0	-0,058
3,845	0,0	-0,041
3,846	0,0	-0,046
3,847	0,0	-0,033
3,848	0,0	-0,016
3,849	0,0	-0,044
3,85	0,0	-0,074
3,851	0,0	-0,083
3,852	0,0	-0,089
3,853	0,0	-0,101
3,854	0,0	-0,129
3,855	0,0	-0,127
3,856	0,0	-0,101
3,857	0,0	-0,093
3,858	0,0	-0,063
3,859	0,0	-0,069
3,86	0,0	-0,103
3,861	0,0	-0,098
3,862	0,0	-0,064
3,863	0,0	-0,074
3,864	0,0	-0,134
3,865	0,0	-0,133
3,866	0,0	-0,124
3,867	0,0	-0,136
3,868	0,0	-0,110
3,869	0,0	-0,099
3,87	0,0	-0,131
3,871	0,0	-0,136
3,872	0,0	-0,123
3,873	0,0	-0,144
3,874	0,0	-0,144
3,875	0,0	-0,119
3,876	0,0	-0,114
3,877	0,0	-0,117
3,878	0,0	-0,111
3,879	0,0	-0,086
3,88	0,0	-0,111
3,881	0,0	-0,116
3,882	0,0	-0,077
3,883	0,0	-0,116
3,884	0,0	-0,096
3,885	0,0	-0,055
3,886	0,0	-0,086
3,887	0,0	-0,096
3,888	0,0	-0,084
3,889	0,0	-0,101
3,89	0,0	-0,148
3,891	0,0	-0,142
3,892	0,0	-0,113
3,893	0,0	-0,109
3,894	0,0	-0,089
3,895	0,0	-0,037
3,896	0,0	-0,045
3,897	0,0	-0,079
3,898	0,0	-0,079
3,899	0,0	-0,064
3,9	0,0	-0,061
3,901	0,0	-0,102
3,902	0,0	-0,124
3,903	0,0	-0,122
3,904	0,0	-0,098
3,905	0,0	-0,108
3,906	0,0	-0,131
3,907	0,0	-0,115
3,908	0,0	-0,084
3,909	0,0	-0,065
3,91	0,0	-0,072
3,911	0,0	-0,045
3,912	0,0	-0,061
3,913	0,0	-0,075
3,914	0,0	-0,070
3,915	0,0	-0,084
3,916	0,0	-0,069
3,917	0,0	-0,076
3,918	0,0	-0,081
3,919	0,0	-0,077
3,92	0,0	-0,089
3,921	0,0	-0,088
3,922	0,0	-0,081
3,923	0,0	-0,084
3,924	0,0	-0,056
3,925	0,0	-0,051
3,926	0,0	-0,086
3,927	0,0	-0,065
3,928	-0,0	-0,026
3,929	0,0	-0,028
3,93	0,0	-0,068
3,931	0,0	-0,083
3,932	0,0	-0,069
3,933	0,0	-0,083
3,934	0,0	-0,079
3,935	0,0	-0,052
3,936	0,0	-0,054
3,937	0,0	-0,083
3,938	0,0	-0,098
3,939	0,0	-0,072
3,94	0,0	-0,054
3,941	0,0	-0,056
3,942	0,0	-0,045
3,943	0,0	-0,072
3,944	0,0	-0,114
3,945	0,0	-0,125
3,946	0,0	-0,120
3,947	0,0	-0,114
3,948	0,0	-0,077
3,949	0,0	-0,048
3,95	0,0	-0,064
3,951	0,0	-0,041
3,952	0,0	-0,026
3,953	0,0	-0,021
3,954	0,0	-0,043
3,955	0,0	-0,087
3,956	0,0	-0,103
3,957	0,0	-0,117
3,958	0,0	-0,088
3,959	0,0	-0,054
3,96	0,0	-0,043
3,961	0,1	-0,022
3,962	0,1	-0,014
3,963	0,1	-0,058
3,964	0,1	-0,086
3,965	0,1	-0,087
3,966	0,1	-0,101
3,967	0,1	-0,102
3,968	0,1	-0,088
3,969	0,1	-0,077
3,97	0,1	-0,074
3,971	0,1	-0,103
3,972	0,1	-0,124
3,973	0,1	-0,138
3,974	0,1	-0,126
3,975	0,1	-0,069
3,976	0,1	-0,071
3,977	0,1	-0,040
3,978	0,1	0,002
3,979	0,1	-0,006
3,98	0,1	0,009
3,981	0,1	-0,008
3,982	0,1	-0,039
3,983	0,1	-0,038
3,984	0,1	-0,032
3,985	0,1	-0,046
3,986	0,1	-0,059
3,987	0,1	-0,047
3,988	0,1	-0,039
3,989	0,1	-0,016
3,99	0,1	-0,009
3,991	0,1	-0,033
3,992	0,1	-0,055
3,993	0,1	-0,067
3,994	0,1	-0,066
3,995	0,1	-0,096
3,996	0,1	-0,122
3,997	0,1	-0,109
3,998	0,1	-0,074
3,999	0,1	-0,048
4	0,1	-0,090
4,001	0,1	-0,103
4,002	0,1	-0,073
4,003	0,1	-0,064
4,004	0,1	-0,053
4,005	0,1	-0,054
4,006	0,1	-0,060
4,007	0,1	-0,091
4,008	0,1	-0,109
4,009	0,1	-0,098
4,01	0,1	-0,098
4,011	0,1	-0,098
4,012	0,1	-0,099
4,013	0,1	-0,074
4,014	0,1	-0,057
4,015	0,1	-0,058
4,016	0,1	-0,068
4,017	0,1	-0,074
4,018	0,1	-0,031
4,019	0,1	-0,030
4,02	0,1	-0,069
4,021	0,1	-0,059
4,022	0,1	-0,047
4,023	0,1	-0,067
4,024	0,1	-0,072
4,025	0,1	-0,071
4,026	0,1	-0,061
4,027	0,1	-0,061
4,028	0,1	-0,092
4,029	0,1	-0,106
4,03	0,1	-0,113
4,031	0,1	-0,101
4,032	0,1	-0,071
4,033	0,1	-0,052
4,034	0,1	-0,039
4,035	0,1	-0,042
4,036	0,1	-0,069
4,037	0,1	-0,064
4,038	0,1	-0,066
4,039	0,1	-0,098
4,04	0,1	-0,107
4,041	0,1	-0,111
4,042	0,1	-0,111
4,043	0,1	-0,104
4,044	0,1	-0,098
4,045	0,1	-0,101
4,046	0,1	-0,067
4,047	0,1	-0,026
4,048	0,1	-0,014
4,049	0,1	-0,020
4,05	0,1	-0,043
4,051	0,1	-0,036
4,052	0,1	-0,039
4,053	0,1	-0,059
4,054	0,1	-0,058
4,055	0,1	-0,069
4,056	0,1	-0,100
4,057	0,1	-0,113
4,058	0,1	-0,091
4,059	0,1	-0,074
4,06	0,1	-0,083
4,061	0,1	-0,084
4,062	0,1	-0,070
4,063	0,1	-0,079
4,064	0,1	-0,083
4,065	0,1	-0,069
4,066	0,1	-0,068
4,067	0,1	-0,085
4,068	0,1	-0,113
4,069	0,1	-0,098
4,07	0,1	-0,104
4,071	0,1	-0,099
4,072	0,1	-0,044
4,073	0,1	-0,043
4,074	0,1	-0,066
4,075	0,1	-0,083
4,076	0,1	-0,106
4,077	0,1	-0,088
4,078	0,1	-0,098
4,079	0,1	-0,116
4,08	0,1	-0,099
4,081	0,1	-0,099
4,082	0,1	-0,091
4,083	0,1	-0,099
4,084	0,1	-0,084
4,085	0,1	-0,059
4,086	0,1	-0,056
4,087	0,1	-0,070
4,088	0,1	-0,070
4,089	0,1	-0,072
4,09	0,1	-0,078
4,091	0,1	-0,068
4,092	0,1	-0,083
4,093	0,1	-0,071
4,094	0,1	-0,087
4,095	0,1	-0,094
4,096	0,1	-0,071
4,097	0,1	-0,096
4,098	0,1	-0,096
4,099	0,1	-0,077
4,1	0,1	-0,072
4,101	0,1	-0,044
4,102	0,1	-0,029
4,103	0,1	-0,052
4,104	0,1	-0,058
4,105	0,1	-0,046
4,106	0,1	-0,032
4,107	0,1	-0,054
4,108	0,1	-0,084
4,109	0,1	-0,089
4,11	0,1	-0,101
4,111	0,1	-0,093
4,112	0,1	-0,098
4,113	0,1	-0,094
4,114	0,1	-0,085
4,115	0,1	-0,104
4,116	0,1	-0,111
4,117	0,1	-0,104
4,118	0,1	-0,071
4,119	0,1	-0,071
4,12	0,1	-0,107
4,121	0,1	-0,127
4,122	0,1	-0,131
4,123	0,1	-0,096
4,124	0,1	-0,061
4,125	0,1	-0,072
4,126	0,1	-0,081
4,127	0,1	-0,063
4,128	0,1	-0,037
4,129	0,1	-0,039
4,13	0,1	-0,061
4,131	0,1	-0,067
4,132	0,1	-0,064
4,133	0,1	-0,092
4,134	0,1	-0,101
4,135	0,1	-0,066
4,136	0,1	-0,039
4,137	0,1	-0,025
4,138	0,1	-0,047
4,139	0,1	-0,056
4,14	0,1	-0,056
4,141	0,1	-0,079
4,142	0,1	-0,068
4,143	0,1	-0,070
4,144	0,1	-0,073
4,145	0,1	-0,055
4,146	0,1	-0,044
4,147	0,1	-0,014
4,148	0,1	-0,026
4,149	0,1	-0,084
4,15	0,1	-0,066
4,151	0,1	-0,053
4,152	0,1	-0,079
4,153	0,1	-0,077
4,154	0,1	-0,114
4,155	0,1	-0,094
4,156	0,1	-0,048
4,157	0,1	-0,074
4,158	0,1	-0,098
4,159	0,1	-0,119
4,16	0,1	-0,125
4,161	0,1	-0,119
4,162	0,1	-0,088
4,163	0,1	-0,063
4,164	0,1	-0,069
4,165	0,1	-0,081
4,166	0,1	-0,079
4,167	0,1	-0,068
4,168	0,1	-0,073
4,169	0,1	-0,067
4,17	0,1	-0,052
4,171	0,1	-0,045
4,172	0,1	-0,017
4,173	0,1	-0,004
4,174	0,1	-0,052
4,175	0,1	-0,071
4,176	0,1	-0,097
4,177	0,1	-0,136
4,178	0,1	-0,109
4,179	0,1	-0,071
4,18	0,1	-0,075
4,181	0,1	-0,127
4,182	0,1	-0,116
4,183	0,1	-0,081
4,184	0,1	-0,088
4,185	0,1	-0,079
4,186	0,1	-0,078
4,187	0,1	-0,081
4,188	0,1	-0,072
4,189	0,1	-0,084
4,19	0,1	-0,071
4,191	0,1	-0,076
4,192	0,1	-0,097
4,193	0,1	-0,079
4,194	0,1	-0,073
4,195	0,1	-0,039
4,196	0,1	-0,023
4,197	0,1	-0,047
4,198	0,1	-0,051
4,199	0,1	-0,041
4,2	0,1	-0,015
4,201	0,1	-0,003
4,202	0,1	-0,018
4,203	0,1	-0,042
4,204	0,1	-0,076
4,205	0,1	-0,104
4,206	0,1	-0,098
4,207	0,1	-0,085
4,208	0,1	-0,058
4,209	0,1	-0,018
4,21	0,1	-0,027
4,211	0,1	-0,089
4,212	0,1	-0,148
4,213	0,1	-0,154
4,214	0,1	-0,109
4,215	0,1	-0,084
4,216	0,1	-0,091
4,217	0,1	-0,087
4,218	0,1	-0,060
4,219	0,1	-0,048
4,22	0,1	-0,041
4,221	0,1	-0,038
4,222	0,1	-0,053
4,223	0,1	-0,042
4,224	0,1	-0,015
4,225	0,1	-0,040
4,226	0,1	-0,076
4,227	0,1	-0,060
4,228	0,1	-0,068
4,229	0,1	-0,087
4,23	0,1	-0,083
4,231	0,1	-0,099
4,232	0,1	-0,098
4,233	0,1	-0,046
4,234	0,1	-0,037
4,235	0,1	-0,068
4,236	0,1	-0,084
4,237	0,1	-0,100
4,238	0,1	-0,090
4,239	0,1	-0,071
4,24	0,1	-0,067
4,241	0,1	-0,055
4,242	0,1	-0,032
4,243	0,1	-0,052
4,244	0,1	-0,062
4,245	0,1	-0,066
4,246	0,1	-0,096
4,247	0,1	-0,084
4,248	0,1	-0,094
4,249	0,1	-0,090
4,25	0,1	-0,074
4,251	0,1	-0,069
4,252	0,1	-0,033
4,253	0,1	-0,049
4,254	0,1	-0,055
4,255	0,1	-0,041
4,256	0,1	-0,066
4,257	0,1	-0,099
4,258	0,1	-0,099
4,259	0,1	-0,074
4,26	0,1	-0,081
4,261	0,1	-0,083
4,262	0,1	-0,059
4,263	0,1	-0,041
4,264	0,1	-0,021
4,265	0,1	-0,012
4,266	0,1	-0,043
4,267	0,1	-0,071
4,268	0,1	-0,086
4,269	0,1	-0,083
4,27	0,1	-0,088
4,271	0,1	-0,082
4,272	0,1	-0,046
4,273	0,1	-0,068
4,274	0,1	-0,098
4,275	0,1	-0,092
4,276	0,1	-0,103
4,277	0,1	-0,111
4,278	0,1	-0,086
4,279	0,1	-0,071
4,28	0,1	-0,057
4,281	0,1	-0,068
4,282	0,1	-0,089
4,283	0,1	-0,066
4,284	0,1	-0,049
4,285	0,1	-0,039
4,286	0,1	-0,041
4,287	0,1	-0,039
4,288	0,1	-0,031
4,289	0,1	-0,058
4,29	0,1	-0,087
4,291	0,1	-0,086
4,292	0,1	-0,069
4,293	0,1	-0,056
4,294	0,1	-0,080
4,295	0,1	-0,064
4,296	0,1	-0,031
4,297	0,1	-0,052
4,298	0,1	-0,056
4,299	0,1	-0,066
4,3	0,1	-0,078
4,301	0,1	-0,079
4,302	0,1	-0,066
4,303	0,1	-0,037
4,304	0,1	-0,042
4,305	0,1	-0,046
4,306	0,0	-0,021
4,307	0,0	-0,016
4,308	0,0	-0,044
4,309	0,0	-0,060
4,31	0,0	-0,064
4,311	0,0	-0,064
4,312	0,1	-0,079
4,313	0,1	-0,079
4,314	0,1	-0,060
4,315	0,1	-0,086
4,316	0,1	-0,113
4,317	0,1	-0,087
4,318	0,1	-0,076
4,319	0,1	-0,072
4,32	0,1	-0,034
4,321	0,1	-0,031
4,322	0,1	-0,046
4,323	0,1	-0,068
4,324	0,1	-0,064
4,325	0,1	-0,066
4,326	0,1	-0,095
4,327	0,1	-0,082
4,328	0,1	-0,083
4,329	0,1	-0,094
4,33	0,1	-0,108
4,331	0,1	-0,133
4,332	0,1	-0,109
4,333	0,1	-0,042
4,334	0,1	-0,008
4,335	0,1	0,003
4,336	0,1	-0,013
4,337	0,1	-0,046
4,338	0,1	-0,039
4,339	0,1	-0,056
4,34	0,1	-0,064
4,341	0,1	-0,058
4,342	0,1	-0,058
4,343	0,1	-0,037
4,344	0,1	-0,034
4,345	0,1	-0,048
4,346	0,1	-0,069
4,347	0,1	-0,075
4,348	0,1	-0,069
4,349	0,1	-0,057
4,35	0,1	-0,035
4,351	0,1	-0,026
4,352	0,1	-0,044
4,353	0,1	-0,073
4,354	0,1	-0,077
4,355	0,1	-0,054
4,356	0,1	-0,048
4,357	0,1	-0,099
4,358	0,1	-0,126
4,359	0,1	-0,118
4,36	0,1	-0,114
4,361	0,1	-0,085
4,362	0,1	-0,068
4,363	0,1	-0,053
4,364	0,1	-0,059
4,365	0,1	-0,067
4,366	0,1	-0,037
4,367	0,1	-0,029
4,368	0,1	-0,043
4,369	0,1	-0,068
4,37	0,1	-0,094
4,371	0,1	-0,084
4,372	0,1	-0,058
4,373	0,1	-0,029
4,374	0,1	-0,034
4,375	0,1	-0,041
4,376	0,1	-0,036
4,377	0,1	-0,048
4,378	0,1	-0,054
4,379	0,1	-0,053
4,38	0,1	-0,051
4,381	0,1	-0,051
4,382	0,1	-0,045
4,383	0,1	-0,051
4,384	0,1	-0,046
4,385	0,1	-0,029
4,386	0,1	-0,039
4,387	0,1	-0,039
4,388	0,1	-0,039
4,389	0,1	-0,051
4,39	0,1	-0,026
4,391	0,1	-0,019
4,392	0,1	-0,065
4,393	0,1	-0,071
4,394	0,1	-0,045
4,395	0,1	-0,048
4,396	0,1	-0,046
4,397	0,1	-0,061
4,398	0,1	-0,067
4,399	0,1	-0,065
4,4	0,1	-0,076
4,401	0,1	-0,072
4,402	0,1	-0,071
4,403	0,1	-0,063
4,404	0,1	-0,025
4,405	0,1	-0,021
4,406	0,1	-0,048
4,407	0,1	-0,039
4,408	0,1	-0,046
4,409	0,1	-0,049
4,41	0,1	-0,007
4,411	0,1	-0,009
4,412	0,1	-0,046
4,413	0,1	-0,063
4,414	0,1	-0,072
4,415	0,1	-0,044
4,416	0,1	-0,018
4,417	0,1	-0,007
4,418	0,1	0,005
4,419	0,1	0,012
4,42	0,1	-0,018
4,421	0,1	-0,083
4,422	0,1	-0,061
4,423	0,1	-0,036
4,424	0,0	-0,061
4,425	0,0	-0,064
4,426	0,0	-0,070
4,427	0,0	-0,027
4,428	0,0	-0,001
4,429	0,0	-0,016
4,43	0,0	-0,009
4,431	0,0	-0,002
4,432	0,0	0,008
4,433	0,0	0,009
4,434	0,0	-0,009
4,435	0,0	-0,001
4,436	0,0	0,020
4,437	0,0	0,003
4,438	0,0	-0,012
4,439	0,0	-0,024
4,44	0,0	-0,025
4,441	0,0	-0,007
4,442	0,0	0,003
4,443	0,0	0,003
4,444	0,0	-0,007
4,445	0,0	-0,026
4,446	0,0	-0,036
4,447	0,0	-0,021
4,448	0,0	-0,009
4,449	0,0	-0,005
4,45	0,0	-0,021
4,451	0,0	-0,040
4,452	0,0	-0,036
4,453	0,0	0,000
4,454	0,0	0,009
4,455	0,0	-0,004
4,456	0,0	0,006
4,457	0,0	0,014
4,458	0,0	0,024
4,459	0,1	0,023
4,46	0,1	0,003
4,461	0,1	-0,022
4,462	0,1	-0,033
4,463	0,1	-0,052
4,464	0,1	-0,067
4,465	0,0	-0,058
4,466	0,0	-0,057
4,467	0,0	-0,048
4,468	0,0	-0,036
4,469	0,0	-0,046
4,47	0,0	-0,083
4,471	0,0	-0,102
4,472	0,0	-0,079
4,473	0,0	-0,074
4,474	0,0	-0,052
4,475	0,0	-0,031
4,476	0,0	-0,059
4,477	0,0	-0,079
4,478	0,0	-0,092
4,479	0,1	-0,122
4,48	0,1	-0,094
4,481	0,1	-0,065
4,482	0,0	-0,076
4,483	0,0	-0,072
4,484	0,0	-0,041
4,485	0,0	-0,053
4,486	0,0	-0,069
4,487	0,0	-0,039
4,488	0,0	-0,038
4,489	0,0	-0,052
4,49	0,0	-0,087
4,491	0,0	-0,106
4,492	0,0	-0,084
4,493	0,0	-0,086
4,494	0,0	-0,072
4,495	0,0	-0,045
4,496	0,1	-0,054
4,497	0,1	-0,077
4,498	0,1	-0,061
4,499	0,1	-0,033
4,5	0,1	-0,044
4,501	0,1	-0,064
4,502	0,1	-0,056
4,503	0,1	-0,056
4,504	0,1	-0,075
4,505	0,1	-0,084
4,506	0,1	-0,081
4,507	0,1	-0,054
4,508	0,1	-0,048
4,509	0,1	-0,063
4,51	0,1	-0,071
4,511	0,1	-0,066
4,512	0,1	-0,062
4,513	0,1	-0,068
4,514	0,1	-0,080
4,515	0,1	-0,106
4,516	0,1	-0,110
4,517	0,1	-0,122
4,518	0,1	-0,106
4,519	0,1	-0,080
4,52	0,1	-0,112
4,521	0,1	-0,107
4,522	0,1	-0,062
4,523	0,1	-0,054
4,524	0,1	-0,053
4,525	0,0	-0,048
4,526	0,0	-0,037
4,527	0,0	-0,048
4,528	0,0	-0,093
4,529	0,0	-0,116
4,53	0,0	-0,139
4,531	0,0	-0,145
4,532	0,0	-0,121
4,533	0,0	-0,087
4,534	0,0	-0,069
4,535	0,0	-0,052
4,536	0,0	-0,045
4,537	0,0	-0,055
4,538	0,0	-0,033
4,539	0,0	-0,030
4,54	0,0	-0,063
4,541	0,0	-0,081
4,542	0,0	-0,072
4,543	0,0	-0,054
4,544	0,0	-0,049
4,545	0,0	-0,053
4,546	0,0	-0,058
4,547	0,0	-0,087
4,548	0,0	-0,098
4,549	0,0	-0,106
4,55	0,0	-0,133
4,551	0,0	-0,090
4,552	0,0	-0,052
4,553	0,0	-0,040
4,554	0,0	-0,019
4,555	0,0	-0,006
4,556	0,0	0,014
4,557	0,0	0,001
4,558	0,0	0,011
4,559	0,0	0,068
4,56	0,0	0,073
4,561	0,0	0,057
4,562	0,0	0,112
4,563	0,0	0,177
4,564	0,0	0,201
4,565	0,0	0,217
4,566	0,0	0,209
4,567	0,0	0,180
4,568	0,0	0,179
4,569	0,0	0,210
4,57	0,0	0,231
4,571	0,0	0,258
4,572	0,0	0,310
4,573	0,0	0,364
4,574	0,0	0,397
4,575	0,0	0,394
4,576	0,0	0,401
4,577	0,0	0,461
4,578	0,0	0,519
4,579	0,0	0,566
4,58	0,0	0,636
4,581	0,0	0,662
4,582	0,0	0,569
4,583	0,0	0,396
4,584	0,0	0,282
4,585	0,0	0,217
4,586	0,0	0,154
4,587	0,0	0,104
4,588	0,0	0,031
4,589	0,0	-0,007
4,59	0,0	-0,058
4,591	0,0	-0,107
4,592	0,0	-0,105
4,593	0,0	-0,129
4,594	0,0	-0,154
4,595	0,0	-0,164
4,596	0,0	-0,170
4,597	0,0	-0,148
4,598	0,0	-0,139
4,599	0,0	-0,166
4,6	0,0	-0,174
4,601	0,0	-0,177
4,602	0,0	-0,186
4,603	0,0	-0,185
4,604	0,0	-0,174
4,605	0,0	-0,202
4,606	0,0	-0,223
4,607	0,0	-0,209
4,608	0,0	-0,194
4,609	0,0	-0,167
4,61	0,0	-0,175
4,611	0,0	-0,189
4,612	0,0	-0,180
4,613	0,0	-0,160
4,614	0,0	-0,146
4,615	0,0	-0,158
4,616	0,0	-0,196
4,617	0,1	-0,207
4,618	0,1	-0,165
4,619	0,1	-0,168
4,62	0,1	-0,164
4,621	0,1	-0,137
4,622	0,1	-0,143
4,623	0,1	-0,136
4,624	0,1	-0,118
4,625	0,1	-0,114
4,626	0,1	-0,116
4,627	0,1	-0,116
4,628	0,1	-0,078
4,629	0,1	-0,058
4,63	0,1	-0,076
4,631	0,1	-0,073
4,632	0,1	-0,088
4,633	0,1	-0,100
4,634	0,1	-0,088
4,635	0,1	-0,117
4,636	0,1	-0,123
4,637	0,1	-0,093
4,638	0,1	-0,084
4,639	0,1	-0,097
4,64	0,1	-0,120
4,641	0,1	-0,123
4,642	0,1	-0,094
4,643	0,1	-0,079
4,644	0,1	-0,112
4,645	0,1	-0,131
4,646	0,1	-0,121
4,647	0,1	-0,083
4,648	0,1	-0,043
4,649	0,1	-0,042
4,65	0,1	-0,059
4,651	0,1	-0,072
4,652	0,1	-0,101
4,653	0,1	-0,118
4,654	0,1	-0,099
4,655	0,1	-0,081
4,656	0,1	-0,094
4,657	0,1	-0,116
4,658	0,1	-0,093
4,659	0,1	-0,081
4,66	0,1	-0,091
4,661	0,1	-0,079
4,662	0,1	-0,092
4,663	0,1	-0,129
4,664	0,1	-0,145
4,665	0,1	-0,125
4,666	0,1	-0,104
4,667	0,1	-0,092
4,668	0,1	-0,082
4,669	0,1	-0,064
4,67	0,1	-0,033
4,671	0,1	-0,064
4,672	0,1	-0,096
4,673	0,1	-0,069
4,674	0,1	-0,059
4,675	0,0	-0,077
4,676	0,0	-0,081
4,677	0,0	-0,064
4,678	0,0	-0,077
4,679	0,0	-0,093
4,68	0,0	-0,102
4,681	0,0	-0,127
4,682	0,0	-0,111
4,683	0,0	-0,091
4,684	0,0	-0,072
4,685	0,0	-0,052
4,686	0,0	-0,048
4,687	0,0	-0,021
4,688	0,0	-0,048
4,689	0,0	-0,088
4,69	0,0	-0,076
4,691	0,0	-0,043
4,692	0,0	-0,036
4,693	0,0	-0,068
4,694	0,0	-0,066
4,695	0,0	-0,035
4,696	0,0	-0,028
4,697	0,0	-0,016
4,698	0,0	-0,004
4,699	0,0	-0,001
4,7	0,0	-0,008
4,701	0,0	-0,054
4,702	0,0	-0,051
4,703	0,0	-0,026
4,704	0,0	-0,058
4,705	0,0	-0,064
4,706	0,0	-0,049
4,707	0,0	-0,035
4,708	0,0	-0,024
4,709	0,0	-0,018
4,71	0,0	-0,026
4,711	0,0	-0,036
4,712	0,0	-0,028
4,713	0,0	-0,013
4,714	-0,0	-0,037
4,715	-0,0	-0,064
4,716	-0,0	-0,041
4,717	-0,0	-0,068
4,718	-0,0	-0,074
4,719	-0,0	-0,043
4,72	-0,0	-0,069
4,721	-0,0	-0,079
4,722	-0,0	-0,065
4,723	-0,0	-0,085
4,724	-0,0	-0,108
4,725	-0,0	-0,071
4,726	-0,0	-0,022
4,727	-0,0	-0,011
4,728	-0,0	-0,004
4,729	-0,0	-0,029
4,73	-0,0	-0,067
4,731	-0,0	-0,042
4,732	-0,0	-0,033
4,733	-0,0	-0,044
4,734	-0,0	-0,019
4,735	-0,0	-0,018
4,736	-0,0	-0,026
4,737	-0,0	-0,019
4,738	-0,0	-0,010
4,739	-0,0	-0,013
4,74	-0,0	-0,039
4,741	-0,0	-0,051
4,742	-0,0	-0,027
4,743	-0,0	-0,016
4,744	-0,0	-0,028
4,745	-0,0	-0,034
4,746	-0,0	-0,056
4,747	-0,0	-0,063
4,748	-0,0	-0,048
4,749	-0,0	-0,036
4,75	0,0	-0,022
4,751	0,0	-0,017
4,752	0,0	-0,014
4,753	0,0	-0,018
4,754	0,0	-0,036
4,755	0,0	-0,013
4,756	0,0	0,009
4,757	0,0	-0,022
4,758	0,0	-0,054
4,759	0,0	-0,094
4,76	0,0	-0,080
4,761	0,0	-0,029
4,762	0,0	-0,022
4,763	0,0	0,013
4,764	0,0	0,039
4,765	0,0	0,030
4,766	0,0	0,057
4,767	0,0	0,059
4,768	0,0	0,009
4,769	0,0	-0,004
4,77	0,0	-0,012
4,771	0,0	-0,014
4,772	0,0	0,006
4,773	0,0	0,014
4,774	0,0	-0,003
4,775	0,0	-0,018
4,776	0,0	0,007
4,777	0,0	0,034
4,778	0,0	0,057
4,779	0,0	0,036
4,78	0,0	-0,024
4,781	0,0	-0,022
4,782	0,0	-0,009
4,783	0,0	-0,005
4,784	0,0	0,015
4,785	0,0	0,032
4,786	0,0	0,052
4,787	0,0	0,036
4,788	0,0	0,026
4,789	0,0	0,057
4,79	0,0	0,076
4,791	0,0	0,085
4,792	0,0	0,090
4,793	0,0	0,077
4,794	0,0	0,071
4,795	0,0	0,069
4,796	0,0	0,049
4,797	0,0	0,054
4,798	0,0	0,076
4,799	0,0	0,066
4,8	0,0	0,052
4,801	0,0	0,048
4,802	0,0	0,067
4,803	0,0	0,058
4,804	0,0	0,037
4,805	0,0	0,054
4,806	0,0	0,052
4,807	0,0	0,087
4,808	0,0	0,121
4,809	0,0	0,085
4,81	0,0	0,086
4,811	0,0	0,111
4,812	0,0	0,097
4,813	0,0	0,093
4,814	0,0	0,065
4,815	0,0	0,037
4,816	0,0	0,045
4,817	0,0	0,041
4,818	0,0	0,066
4,819	0,0	0,094
4,82	0,0	0,082
4,821	0,0	0,066
4,822	0,0	0,089
4,823	0,0	0,082
4,824	0,0	0,074
4,825	0,0	0,104
4,826	0,0	0,092
4,827	0,0	0,081
4,828	0,0	0,080
4,829	0,0	0,092
4,83	0,0	0,098
4,831	0,0	0,080
4,832	0,0	0,085
4,833	0,0	0,101
4,834	0,0	0,068
4,835	0,0	0,046
4,836	0,0	0,077
4,837	0,0	0,096
4,838	0,0	0,093
4,839	0,0	0,076
4,84	0,0	0,079
4,841	0,0	0,091
4,842	0,0	0,093
4,843	0,0	0,106
4,844	0,0	0,096
4,845	0,0	0,077
4,846	0,0	0,074
4,847	0,0	0,092
4,848	0,0	0,099
4,849	0,0	0,088
4,85	0,0	0,083
4,851	0,0	0,070
4,852	0,0	0,058
4,853	0,0	0,074
4,854	0,0	0,095
4,855	0,0	0,088
4,856	0,0	0,072
4,857	0,0	0,066
4,858	0,0	0,057
4,859	0,0	0,044
4,86	0,0	0,073
4,861	0,0	0,109
4,862	0,0	0,090
4,863	0,0	0,034
4,864	0,0	0,029
4,865	0,0	0,049
4,866	0,0	0,028
4,867	0,0	0,014
4,868	0,0	0,017
4,869	0,0	0,033
4,87	0,0	0,030
4,871	0,0	0,016
4,872	0,0	-0,002
4,873	0,0	0,002
4,874	0,0	0,029
4,875	0,0	0,042
4,876	0,0	0,053
4,877	0,0	0,030
4,878	0,0	-0,003
4,879	0,0	-0,013
4,88	0,0	-0,004
4,881	0,0	0,010
4,882	0,0	-0,003
4,883	0,0	-0,020
4,884	0,0	-0,024
4,885	0,0	-0,022
4,886	0,0	-0,013
4,887	0,0	-0,034
4,888	0,0	-0,086
4,889	0,0	-0,111
4,89	0,0	-0,102
4,891	0,0	-0,098
4,892	0,0	-0,115
4,893	0,0	-0,108
4,894	0,0	-0,088
4,895	0,0	-0,077
4,896	0,0	-0,058
4,897	0,0	-0,041
4,898	0,0	-0,018
4,899	0,0	0,009
4,9	0,0	0,004
4,901	0,0	-0,044
4,902	0,0	-0,053
4,903	0,0	-0,046
4,904	0,0	-0,069
4,905	0,0	-0,081
4,906	0,0	-0,098
4,907	0,0	-0,066
4,908	0,0	-0,041
4,909	0,0	-0,078
4,91	0,0	-0,080
4,911	0,0	-0,079
4,912	0,0	-0,079
4,913	0,0	-0,066
4,914	0,0	-0,109
4,915	0,0	-0,133
4,916	0,0	-0,106
4,917	0,0	-0,137
4,918	0,0	-0,152
4,919	0,0	-0,118
4,92	0,0	-0,087
4,921	0,0	-0,066
4,922	0,0	-0,090
4,923	0,0	-0,134
4,924	0,0	-0,130
4,925	0,0	-0,119
4,926	0,0	-0,111
4,927	0,0	-0,098
4,928	0,0	-0,103
4,929	0,0	-0,101
4,93	0,0	-0,094
4,931	0,0	-0,081
4,932	0,0	-0,086
4,933	0,0	-0,088
4,934	0,0	-0,053
4,935	0,0	-0,058
4,936	0,0	-0,087
4,937	0,0	-0,135
4,938	0,0	-0,134
4,939	0,0	-0,107
4,94	0,0	-0,116
4,941	0,0	-0,111
4,942	0,0	-0,096
4,943	0,0	-0,064
4,944	0,0	-0,061
4,945	0,0	-0,071
4,946	0,0	-0,080
4,947	0,0	-0,104
4,948	0,0	-0,098
4,949	0,0	-0,086
4,95	0,0	-0,097
4,951	0,0	-0,070
4,952	0,0	-0,075
4,953	0,0	-0,138
4,954	0,0	-0,156
4,955	0,0	-0,119
4,956	0,0	-0,098
4,957	0,0	-0,108
4,958	0,0	-0,105
4,959	0,0	-0,118
4,96	0,0	-0,122
4,961	0,0	-0,094
4,962	0,0	-0,068
4,963	0,0	-0,061
4,964	0,0	-0,047
4,965	0,0	-0,041
4,966	0,0	-0,069
4,967	0,0	-0,048
4,968	0,0	-0,085
4,969	0,0	-0,126
4,97	0,0	-0,090
4,971	0,0	-0,067
4,972	0,0	-0,033
4,973	0,0	-0,023
4,974	0,0	-0,027
4,975	0,0	-0,032
4,976	0,0	-0,049
4,977	0,1	-0,095
4,978	0,1	-0,103
4,979	0,1	-0,062
4,98	0,1	-0,082
4,981	0,1	-0,106
4,982	0,1	-0,102
4,983	0,1	-0,089
4,984	0,1	-0,101
4,985	0,1	-0,114
4,986	0,1	-0,081
4,987	0,1	-0,111
4,988	0,1	-0,128
4,989	0,1	-0,114
4,99	0,1	-0,114
4,991	0,1	-0,084
4,992	0,0	-0,077
4,993	0,0	-0,064
4,994	0,0	-0,057
4,995	0,0	-0,068
4,996	0,0	-0,099
4,997	0,0	-0,116
4,998	0,0	-0,094
4,999	0,0	-0,100
5	0,0	-0,104
5,001	0,0	-0,083
5,002	0,0	-0,079
5,003	0,0	-0,086
5,004	0,0	-0,076
5,005	0,0	-0,074
5,006	0,0	-0,092
5,007	0,0	-0,071
5,008	0,0	-0,063
5,009	0,0	-0,104
5,01	0,0	-0,130
5,011	0,0	-0,109
5,012	0,0	-0,088
5,013	0,0	-0,084
5,014	0,0	-0,074
5,015	0,0	-0,076
5,016	0,0	-0,074
5,017	0,0	-0,089
5,018	0,0	-0,118
5,019	0,0	-0,094
5,02	0,0	-0,079
5,021	0,0	-0,096
5,022	0,0	-0,072
5,023	0,0	-0,058
5,024	0,0	-0,081
5,025	0,0	-0,112
5,026	0,0	-0,115
5,027	0,0	-0,103
5,028	0,0	-0,139
5,029	0,0	-0,114
5,03	0,0	-0,085
5,031	0,0	-0,090
5,032	0,0	-0,064
5,033	0,0	-0,025
5,034	0,1	-0,020
5,035	0,1	-0,041
5,036	0,1	-0,044
5,037	0,1	-0,069
5,038	0,1	-0,072
5,039	0,1	-0,055
5,04	0,1	-0,050
5,041	0,1	-0,057
5,042	0,1	-0,065
5,043	0,1	-0,069
5,044	0,1	-0,058
5,045	0,1	-0,040
5,046	0,1	-0,026
5,047	0,1	-0,042
5,048	0,1	-0,066
5,049	0,1	-0,050
5,05	0,1	-0,053
5,051	0,1	-0,079
5,052	0,1	-0,077
5,053	0,1	-0,059
5,054	0,1	-0,076
5,055	0,1	-0,103
5,056	0,1	-0,115
5,057	0,1	-0,101
5,058	0,1	-0,058
5,059	0,1	-0,028
5,06	0,1	-0,028
5,061	0,1	-0,043
5,062	0,1	-0,062
5,063	0,1	-0,099
5,064	0,1	-0,091
5,065	0,1	-0,058
5,066	0,1	-0,052
5,067	0,1	-0,062
5,068	0,1	-0,087
5,069	0,1	-0,101
5,07	0,1	-0,090
5,071	0,1	-0,066
5,072	0,1	-0,055
5,073	0,1	-0,056
5,074	0,1	-0,060
5,075	0,1	-0,054
5,076	0,1	-0,058
5,077	0,1	-0,072
5,078	0,1	-0,082
5,079	0,1	-0,101
5,08	0,1	-0,084
5,081	0,1	-0,069
5,082	0,1	-0,083
5,083	0,1	-0,064
5,084	0,1	-0,077
5,085	0,1	-0,101
5,086	0,1	-0,090
5,087	0,1	-0,078
5,088	0,1	-0,069
5,089	0,1	-0,076
5,09	0,1	-0,091
5,091	0,1	-0,083
5,092	0,1	-0,089
5,093	0,1	-0,113
5,094	0,1	-0,108
5,095	0,1	-0,103
5,096	0,1	-0,092
5,097	0,1	-0,076
5,098	0,1	-0,065
5,099	0,1	-0,040
5,1	0,1	-0,019
5,101	0,1	-0,037
5,102	0,1	-0,066
5,103	0,1	-0,071
5,104	0,1	-0,046
5,105	0,1	-0,031
5,106	0,1	-0,062
5,107	0,1	-0,116
5,108	0,1	-0,142
5,109	0,1	-0,133
5,11	0,1	-0,106
5,111	0,1	-0,069
5,112	0,1	-0,083
5,113	0,1	-0,106
5,114	0,1	-0,076
5,115	0,1	-0,041
5,116	0,1	-0,022
5,117	0,1	-0,033
5,118	0,1	-0,044
5,119	0,1	-0,056
5,12	0,1	-0,072
5,121	0,1	-0,076
5,122	0,1	-0,064
5,123	0,1	-0,056
5,124	0,1	-0,086
5,125	0,1	-0,079
5,126	0,1	-0,066
5,127	0,1	-0,072
5,128	0,1	-0,064
5,129	0,1	-0,066
5,13	0,1	-0,066
5,131	0,1	-0,066
5,132	0,1	-0,058
5,133	0,1	-0,065
5,134	0,1	-0,101
5,135	0,1	-0,104
5,136	0,1	-0,090
5,137	0,1	-0,084
5,138	0,1	-0,093
5,139	0,1	-0,090
5,14	0,1	-0,092
5,141	0,1	-0,103
5,142	0,1	-0,051
5,143	0,1	-0,052
5,144	0,1	-0,068
5,145	0,1	-0,048
5,146	0,1	-0,061
5,147	0,1	-0,048
5,148	0,1	-0,068
5,149	0,1	-0,094
5,15	0,1	-0,095
5,151	0,1	-0,104
5,152	0,1	-0,086
5,153	0,1	-0,066
5,154	0,1	-0,076
5,155	0,1	-0,077
5,156	0,1	-0,068
5,157	0,1	-0,077
5,158	0,1	-0,070
5,159	0,1	-0,067
5,16	0,1	-0,082
5,161	0,1	-0,106
5,162	0,1	-0,098
5,163	0,1	-0,078
5,164	0,1	-0,078
5,165	0,1	-0,071
5,166	0,1	-0,104
5,167	0,1	-0,103
5,168	0,0	-0,070
5,169	0,0	-0,097
5,17	0,1	-0,106
5,171	0,1	-0,083
5,172	0,1	-0,074
5,173	0,1	-0,081
5,174	0,1	-0,070
5,175	0,1	-0,064
5,176	0,1	-0,069
5,177	0,1	-0,068
5,178	0,1	-0,042
5,179	0,1	-0,064
5,18	0,1	-0,124
5,181	0,1	-0,138
5,182	0,1	-0,143
5,183	0,1	-0,123
5,184	0,1	-0,086
5,185	0,1	-0,067
5,186	0,1	-0,066
5,187	0,1	-0,065
5,188	0,1	-0,075
5,189	0,1	-0,085
5,19	0,1	-0,076
5,191	0,1	-0,069
5,192	0,1	-0,055
5,193	0,1	-0,041
5,194	0,1	-0,051
5,195	0,1	-0,098
5,196	0,1	-0,126
5,197	0,1	-0,115
5,198	0,1	-0,095
5,199	0,1	-0,071
5,2	0,1	-0,069
5,201	0,1	-0,080
5,202	0,1	-0,078
5,203	0,1	-0,094
5,204	0,1	-0,098
5,205	0,1	-0,058
5,206	0,1	-0,040
5,207	0,1	-0,043
5,208	0,1	-0,051
5,209	0,1	-0,058
5,21	0,1	-0,048
5,211	0,1	-0,047
5,212	0,1	-0,056
5,213	0,1	-0,051
5,214	0,1	-0,042
5,215	0,1	-0,026
5,216	0,1	-0,022
5,217	0,1	-0,039
5,218	0,1	-0,076
5,219	0,1	-0,121
5,22	0,1	-0,118
5,221	0,1	-0,104
5,222	0,1	-0,092
5,223	0,1	-0,101
5,224	0,1	-0,118
5,225	0,1	-0,108
5,226	0,1	-0,086
5,227	0,1	-0,046
5,228	0,1	-0,074
5,229	0,1	-0,077
5,23	0,1	-0,045
5,231	0,1	-0,072
5,232	0,1	-0,078
5,233	0,1	-0,089
5,234	0,1	-0,089
5,235	0,1	-0,074
5,236	0,1	-0,092
5,237	0,1	-0,097
5,238	0,1	-0,087
5,239	0,1	-0,088
5,24	0,1	-0,077
5,241	0,1	-0,069
5,242	0,1	-0,074
5,243	0,1	-0,076
5,244	0,1	-0,075
5,245	0,1	-0,073
5,246	0,1	-0,061
5,247	0,1	-0,042
5,248	0,1	-0,049
5,249	0,1	-0,061
5,25	0,1	-0,061
5,251	0,1	-0,056
5,252	0,1	-0,074
5,253	0,1	-0,100
5,254	0,1	-0,097
5,255	0,1	-0,108
5,256	0,1	-0,137
5,257	0,1	-0,119
5,258	0,1	-0,098
5,259	0,1	-0,104
5,26	0,1	-0,091
5,261	0,1	-0,067
5,262	0,1	-0,044
5,263	0,1	-0,071
5,264	0,1	-0,123
5,265	0,1	-0,131
5,266	0,1	-0,110
5,267	0,1	-0,067
5,268	0,1	-0,066
5,269	0,1	-0,056
5,27	0,1	-0,054
5,271	0,1	-0,100
5,272	0,1	-0,108
5,273	0,1	-0,089
5,274	0,1	-0,064
5,275	0,1	-0,038
5,276	0,1	-0,029
5,277	0,1	-0,059
5,278	0,1	-0,059
5,279	0,1	-0,064
5,28	0,1	-0,083
5,281	0,1	-0,101
5,282	0,1	-0,151
5,283	0,1	-0,167
5,284	0,1	-0,123
5,285	0,1	-0,068
5,286	0,1	-0,037
5,287	0,1	-0,005
5,288	0,1	-0,003
5,289	0,1	-0,028
5,29	0,1	-0,046
5,291	0,1	-0,063
5,292	0,1	-0,064
5,293	0,1	-0,064
5,294	0,1	-0,075
5,295	0,1	-0,097
5,296	0,1	-0,101
5,297	0,1	-0,104
5,298	0,1	-0,089
5,299	0,1	-0,039
5,3	0,1	-0,041
5,301	0,1	-0,058
5,302	0,1	-0,023
5,303	0,1	-0,007
5,304	0,1	-0,028
5,305	0,1	-0,034
5,306	0,1	-0,048
5,307	0,1	-0,066
5,308	0,1	-0,075
5,309	0,1	-0,081
5,31	0,1	-0,072
5,311	0,1	-0,081
5,312	0,1	-0,079
5,313	0,1	-0,081
5,314	0,1	-0,093
5,315	0,1	-0,104
5,316	0,1	-0,096
5,317	0,1	-0,072
5,318	0,1	-0,061
5,319	0,1	-0,068
5,32	0,1	-0,081
5,321	0,1	-0,089
5,322	0,1	-0,086
5,323	0,1	-0,081
5,324	0,1	-0,087
5,325	0,1	-0,054
5,326	0,1	-0,033
5,327	0,1	-0,048
5,328	0,1	-0,081
5,329	0,1	-0,081
5,33	0,1	-0,085
5,331	0,1	-0,137
5,332	0,1	-0,133
5,333	0,1	-0,113
5,334	0,1	-0,123
5,335	0,1	-0,124
5,336	0,1	-0,092
5,337	0,1	-0,056
5,338	0,1	-0,018
5,339	0,1	-0,021
5,34	0,1	-0,051
5,341	0,1	-0,058
5,342	0,1	-0,057
5,343	0,1	-0,034
5,344	0,1	-0,048
5,345	0,1	-0,070
5,346	0,1	-0,051
5,347	0,1	-0,037
5,348	0,1	-0,058
5,349	0,1	-0,091
5,35	0,1	-0,094
5,351	0,1	-0,046
5,352	0,1	-0,043
5,353	0,1	-0,089
5,354	0,1	-0,064
5,355	0,1	-0,052
5,356	0,1	-0,101
5,357	0,1	-0,114
5,358	0,1	-0,091
5,359	0,1	-0,072
5,36	0,1	-0,071
5,361	0,1	-0,116
5,362	0,1	-0,113
5,363	0,1	-0,066
5,364	0,1	-0,044
5,365	0,1	-0,066
5,366	0,1	-0,079
5,367	0,1	-0,048
5,368	0,1	-0,077
5,369	0,1	-0,086
5,37	0,1	-0,024
5,371	0,1	0,003
5,372	0,2	-0,026
5,373	0,2	-0,021
5,374	0,2	-0,012
5,375	0,2	-0,029
5,376	0,2	-0,041
5,377	0,2	-0,066
5,378	0,2	-0,073
5,379	0,2	-0,097
5,38	0,2	-0,093
5,381	0,2	-0,061
5,382	0,2	-0,056
5,383	0,2	-0,074
5,384	0,2	-0,092
5,385	0,2	-0,073
5,386	0,2	-0,057
5,387	0,2	-0,021
5,388	0,2	-0,004
5,389	0,2	-0,015
5,39	0,2	-0,059
5,391	0,2	-0,112
5,392	0,2	-0,108
5,393	0,2	-0,074
5,394	0,2	-0,059
5,395	0,2	-0,077
5,396	0,2	-0,076
5,397	0,2	-0,080
5,398	0,2	-0,088
5,399	0,2	-0,088
5,4	0,2	-0,089
5,401	0,2	-0,096
5,402	0,2	-0,073
5,403	0,2	-0,072
5,404	0,2	-0,099
5,405	0,2	-0,056
5,406	0,2	-0,048
5,407	0,2	-0,063
5,408	0,2	-0,069
5,409	0,2	-0,079
5,41	0,2	-0,063
5,411	0,2	-0,079
5,412	0,2	-0,098
5,413	0,2	-0,050
5,414	0,2	-0,012
5,415	0,2	-0,043
5,416	0,2	-0,074
5,417	0,2	-0,081
5,418	0,2	-0,068
5,419	0,2	-0,044
5,42	0,2	-0,030
5,421	0,2	-0,040
5,422	0,2	-0,049
5,423	0,2	-0,030
5,424	0,2	-0,027
5,425	0,2	-0,029
5,426	0,2	-0,030
5,427	0,2	-0,033
5,428	0,2	-0,018
5,429	0,2	-0,034
5,43	0,2	-0,059
5,431	0,2	-0,037
5,432	0,2	-0,043
5,433	0,2	-0,043
5,434	0,2	-0,032
5,435	0,2	-0,053
5,436	0,2	-0,067
5,437	0,2	-0,072
5,438	0,2	-0,048
5,439	0,2	-0,029
5,44	0,2	-0,022
5,441	0,2	-0,018
5,442	0,2	-0,018
5,443	0,2	-0,022
5,444	0,2	-0,025
5,445	0,2	-0,015
5,446	0,2	-0,019
5,447	0,2	-0,005
5,448	0,2	-0,006
5,449	0,2	-0,033
5,45	0,2	-0,027
5,451	0,2	-0,024
5,452	0,2	-0,023
5,453	0,2	-0,003
5,454	0,2	0,011
5,455	0,2	-0,011
5,456	0,2	-0,019
5,457	0,2	0,002
5,458	0,3	0,003
5,459	0,3	-0,026
5,46	0,3	-0,063
5,461	0,3	-0,032
5,462	0,3	-0,011
5,463	0,3	-0,059
5,464	0,3	-0,039
5,465	0,3	0,003
5,466	0,3	0,032
5,467	0,3	0,066
5,468	0,3	0,030
5,469	0,3	0,002
5,47	0,3	-0,038
5,471	0,3	-0,056
5,472	0,3	-0,052
5,473	0,3	-0,058
5,474	0,3	-0,052
5,475	0,3	-0,060
5,476	0,3	-0,044
5,477	0,3	-0,027
5,478	0,3	-0,025
5,479	0,3	-0,049
5,48	0,3	-0,039
5,481	0,3	-0,008
5,482	0,3	-0,018
5,483	0,3	-0,009
5,484	0,3	-0,039
5,485	0,3	-0,058
5,486	0,3	-0,004
5,487	0,3	0,021
5,488	0,3	-0,016
5,489	0,3	-0,044
5,49	0,3	-0,038
5,491	0,3	-0,052
5,492	0,3	-0,073
5,493	0,3	-0,087
5,494	0,3	-0,116
5,495	0,3	-0,118
5,496	0,3	-0,086
5,497	0,3	-0,079
5,498	0,3	-0,050
5,499	0,3	-0,051
5,5	0,3	-0,098
5,501	0,3	-0,098
5,502	0,3	-0,064
5,503	0,3	-0,054
5,504	0,3	-0,057
5,505	0,3	-0,041
5,506	0,3	-0,027
5,507	0,3	-0,020
5,508	0,3	-0,031
5,509	0,3	-0,052
5,51	0,3	-0,060
5,511	0,3	-0,079
5,512	0,3	-0,091
5,513	0,3	-0,086
5,514	0,3	-0,089
5,515	0,3	-0,080
5,516	0,3	-0,083
5,517	0,3	-0,085
5,518	0,3	-0,055
5,519	0,3	-0,057
5,52	0,3	-0,058
5,521	0,3	-0,059
5,522	0,4	-0,066
5,523	0,4	-0,060
5,524	0,4	-0,062
5,525	0,4	-0,028
5,526	0,4	-0,037
5,527	0,4	-0,064
5,528	0,4	-0,052
5,529	0,4	-0,079
5,53	0,4	-0,103
5,531	0,4	-0,083
5,532	0,4	-0,080
5,533	0,4	-0,068
5,534	0,4	-0,058
5,535	0,4	-0,088
5,536	0,4	-0,071
5,537	0,4	-0,071
5,538	0,4	-0,091
5,539	0,4	-0,078
5,54	0,4	-0,089
5,541	0,4	-0,124
5,542	0,4	-0,109
5,543	0,4	-0,080
5,544	0,4	-0,088
5,545	0,4	-0,066
5,546	0,4	-0,066
5,547	0,4	-0,067
5,548	0,4	-0,067
5,549	0,4	-0,089
5,55	0,4	-0,069
5,551	0,4	-0,063
5,552	0,4	-0,061
5,553	0,4	-0,034
5,554	0,4	-0,052
5,555	0,4	-0,091
5,556	0,4	-0,063
5,557	0,4	-0,052
5,558	0,4	-0,098
5,559	0,4	-0,099
5,56	0,4	-0,086
5,561	0,4	-0,082
5,562	0,4	-0,063
5,563	0,4	-0,064
5,564	0,4	-0,087
5,565	0,4	-0,079
5,566	0,4	-0,054
5,567	0,4	-0,064
5,568	0,4	-0,108
5,569	0,4	-0,098
5,57	0,4	-0,042
5,571	0,4	-0,021
5,572	0,4	0,011
5,573	0,4	0,056
5,574	0,4	0,061
5,575	0,4	0,058
5,576	0,4	0,058
5,577	0,4	0,079
5,578	0,5	0,088
5,579	0,5	0,077
5,58	0,5	0,111
5,581	0,5	0,123
5,582	0,5	0,169
5,583	0,5	0,241
5,584	0,5	0,247
5,585	0,5	0,263
5,586	0,5	0,257
5,587	0,5	0,266
5,588	0,5	0,286
5,589	0,5	0,296
5,59	0,5	0,333
5,591	0,5	0,368
5,592	0,5	0,429
5,593	0,5	0,475
5,594	0,5	0,494
5,595	0,5	0,478
5,596	0,5	0,471
5,597	0,5	0,504
5,598	0,5	0,533
5,599	0,5	0,512
5,6	0,5	0,421
5,601	0,5	0,314
5,602	0,5	0,228
5,603	0,5	0,153
5,604	0,5	0,078
5,605	0,5	0,013
5,606	0,5	-0,031
5,607	0,5	-0,051
5,608	0,5	-0,072
5,609	0,5	-0,086
5,61	0,5	-0,117
5,611	0,5	-0,157
5,612	0,5	-0,161
5,613	0,5	-0,174
5,614	0,5	-0,177
5,615	0,5	-0,202
5,616	0,5	-0,204
5,617	0,5	-0,183
5,618	0,5	-0,200
5,619	0,5	-0,188
5,62	0,5	-0,162
5,621	0,5	-0,147
5,622	0,6	-0,177
5,623	0,6	-0,202
5,624	0,6	-0,159
5,625	0,6	-0,158
5,626	0,6	-0,191
5,627	0,6	-0,199
5,628	0,6	-0,207
5,629	0,6	-0,195
5,63	0,6	-0,180
5,631	0,6	-0,163
5,632	0,6	-0,153
5,633	0,6	-0,166
5,634	0,6	-0,193
5,635	0,6	-0,189
5,636	0,6	-0,178
5,637	0,6	-0,206
5,638	0,6	-0,201
5,639	0,6	-0,151
5,64	0,6	-0,152
5,641	0,6	-0,156
5,642	0,6	-0,123
5,643	0,6	-0,124
5,644	0,7	-0,111
5,645	0,7	-0,077
5,646	0,7	-0,066
5,647	0,7	-0,036
5,648	0,7	-0,036
5,649	0,7	-0,070
5,65	0,7	-0,088
5,651	0,7	-0,100
5,652	0,7	-0,115
5,653	0,7	-0,096
5,654	0,7	-0,069
5,655	0,7	-0,090
5,656	0,7	-0,092
5,657	0,7	-0,093
5,658	0,7	-0,132
5,659	0,7	-0,096
5,66	0,7	-0,042
5,661	0,7	-0,089
5,662	0,7	-0,114
5,663	0,7	-0,084
5,664	0,7	-0,066
5,665	0,7	-0,072
5,666	0,7	-0,086
5,667	0,7	-0,068
5,668	0,7	-0,066
5,669	0,7	-0,067
5,67	0,8	-0,079
5,671	0,8	-0,096
5,672	0,8	-0,081
5,673	0,8	-0,059
5,674	0,8	-0,060
5,675	0,8	-0,079
5,676	0,8	-0,086
5,677	0,8	-0,123
5,678	0,8	-0,122
5,679	0,8	-0,045
5,68	0,8	-0,010
5,681	0,8	-0,033
5,682	0,8	-0,070
5,683	0,8	-0,097
5,684	0,8	-0,082
5,685	0,8	-0,039
5,686	0,8	-0,048
5,687	0,8	-0,043
5,688	0,8	-0,052
5,689	0,8	-0,056
5,69	0,8	-0,035
5,691	0,8	-0,066
5,692	0,8	-0,069
5,693	0,8	-0,044
5,694	0,8	-0,067
5,695	0,8	-0,084
5,696	0,8	-0,071
5,697	0,8	-0,111
5,698	0,8	-0,088
5,699	0,8	-0,029
5,7	0,8	-0,022
5,701	0,8	0,001
5,702	0,8	-0,014
5,703	0,8	-0,054
5,704	0,8	-0,068
5,705	0,8	-0,066
5,706	0,8	-0,081
5,707	0,8	-0,076
5,708	0,8	-0,041
5,709	0,8	-0,026
5,71	0,8	-0,028
5,711	0,8	-0,031
5,712	0,8	-0,032
5,713	0,8	-0,050
5,714	0,8	-0,065
5,715	0,8	-0,068
5,716	0,8	-0,048
5,717	0,8	-0,043
5,718	0,8	-0,045
5,719	0,8	-0,048
5,72	0,8	-0,076
5,721	0,8	-0,064
5,722	0,8	-0,046
5,723	0,8	-0,045
5,724	0,8	-0,040
5,725	0,8	-0,039
5,726	0,8	-0,001
5,727	0,8	0,004
5,728	0,8	-0,033
5,729	0,8	-0,060
5,73	0,8	-0,074
5,731	0,8	-0,037
5,732	0,8	-0,031
5,733	0,8	-0,044
5,734	0,8	-0,041
5,735	0,8	-0,047
5,736	0,8	-0,043
5,737	0,8	-0,055
5,738	0,8	-0,057
5,739	0,8	-0,049
5,74	0,8	-0,055
5,741	0,8	-0,062
5,742	0,8	-0,066
5,743	0,8	-0,064
5,744	0,8	-0,058
5,745	0,8	-0,061
5,746	0,8	-0,074
5,747	0,8	-0,070
5,748	0,8	-0,039
5,749	0,8	-0,024
5,75	0,8	-0,011
5,751	0,8	0,005
5,752	0,8	-0,018
5,753	0,8	0,018
5,754	0,8	0,047
5,755	0,8	-0,004
5,756	0,8	-0,021
5,757	0,8	-0,018
5,758	0,8	-0,012
5,759	0,8	-0,022
5,76	0,8	-0,019
5,761	0,8	-0,001
5,762	0,8	-0,003
5,763	0,8	0,008
5,764	0,8	-0,001
5,765	0,8	-0,001
5,766	0,8	0,004
5,767	0,8	-0,016
5,768	0,8	-0,023
5,769	0,8	-0,022
5,77	0,8	-0,021
5,771	0,8	0,007
5,772	0,9	0,021
5,773	0,9	-0,011
5,774	0,9	-0,023
5,775	0,9	-0,028
5,776	0,9	-0,046
5,777	0,9	-0,030
5,778	0,9	-0,005
5,779	0,9	0,013
5,78	0,9	0,026
5,781	0,9	0,019
5,782	0,9	0,014
5,783	0,9	0,009
5,784	0,9	-0,007
5,785	0,9	-0,011
5,786	0,9	-0,019
5,787	0,9	-0,007
5,788	0,9	0,043
5,789	0,9	0,079
5,79	0,9	0,064
5,791	0,9	0,039
5,792	0,9	0,047
5,793	0,9	0,052
5,794	0,9	0,023
5,795	0,9	-0,003
5,796	0,9	0,034
5,797	0,9	0,039
5,798	0,9	-0,015
5,799	1,0	-0,009
5,8	1,0	0,026
5,801	1,0	0,023
5,802	1,0	0,040
5,803	1,0	0,064
5,804	1,0	0,076
5,805	1,0	0,084
5,806	1,0	0,051
5,807	1,0	0,030
5,808	1,0	0,016
5,809	1,0	0,004
5,81	1,0	0,014
5,811	1,0	-0,001
5,812	1,0	0,026
5,813	1,0	0,049
5,814	1,0	0,055
5,815	1,0	0,109
5,816	1,0	0,111
5,817	1,0	0,069
5,818	1,0	0,078
5,819	1,0	0,119
5,82	1,0	0,121
5,821	1,0	0,109
5,822	1,0	0,106
5,823	1,0	0,084
5,824	1,0	0,075
5,825	1,0	0,101
5,826	1,0	0,106
5,827	1,0	0,119
5,828	1,0	0,120
5,829	1,0	0,088
5,83	1,0	0,091
5,831	1,0	0,090
5,832	1,0	0,086
5,833	1,0	0,097
5,834	1,0	0,094
5,835	1,0	0,098
5,836	1,0	0,109
5,837	1,0	0,096
5,838	1,0	0,079
5,839	1,0	0,069
5,84	1,0	0,068
5,841	1,0	0,062
5,842	1,0	0,074
5,843	1,0	0,083
5,844	1,0	0,070
5,845	1,0	0,086
5,846	1,0	0,101
5,847	1,0	0,133
5,848	1,0	0,167
5,849	1,0	0,153
5,85	1,1	0,146
5,851	1,1	0,145
5,852	1,1	0,110
5,853	1,1	0,108
5,854	1,1	0,132
5,855	1,1	0,129
5,856	1,1	0,115
5,857	1,1	0,111
5,858	1,1	0,112
5,859	1,1	0,090
5,86	1,1	0,070
5,861	1,1	0,063
5,862	1,1	0,059
5,863	1,1	0,065
5,864	1,1	0,081
5,865	1,1	0,106
5,866	1,1	0,111
5,867	1,1	0,106
5,868	1,1	0,081
5,869	1,1	0,079
5,87	1,1	0,115
5,871	1,1	0,132
5,872	1,1	0,114
5,873	1,1	0,073
5,874	1,1	0,053
5,875	1,1	0,054
5,876	1,1	0,036
5,877	1,1	0,008
5,878	1,1	0,018
5,879	1,1	0,036
5,88	1,1	0,031
5,881	1,1	0,009
5,882	1,1	-0,001
5,883	1,1	0,007
5,884	1,1	0,024
5,885	1,1	0,033
5,886	1,1	0,012
5,887	1,1	-0,003
5,888	1,1	0,008
5,889	1,1	0,011
5,89	1,1	0,003
5,891	1,1	0,017
5,892	1,1	0,026
5,893	1,1	0,012
5,894	1,1	0,013
5,895	1,1	0,019
5,896	1,1	0,037
5,897	1,1	0,033
5,898	1,2	-0,006
5,899	1,2	-0,012
5,9	1,2	-0,018
5,901	1,2	-0,042
5,902	1,2	-0,058
5,903	1,2	-0,061
5,904	1,2	-0,046
5,905	1,2	-0,056
5,906	1,2	-0,076
5,907	1,2	-0,081
5,908	1,2	-0,096
5,909	1,2	-0,091
5,91	1,2	-0,088
5,911	1,2	-0,073
5,912	1,2	-0,048
5,913	1,2	-0,061
5,914	1,2	-0,089
5,915	1,2	-0,083
5,916	1,2	-0,038
5,917	1,2	-0,024
5,918	1,2	-0,043
5,919	1,2	-0,079
5,92	1,2	-0,108
5,921	1,2	-0,114
5,922	1,2	-0,131
5,923	1,2	-0,144
5,924	1,2	-0,151
5,925	1,2	-0,103
5,926	1,2	-0,089
5,927	1,2	-0,124
5,928	1,2	-0,124
5,929	1,2	-0,097
5,93	1,2	-0,074
5,931	1,2	-0,082
5,932	1,2	-0,087
5,933	1,2	-0,099
5,934	1,2	-0,089
5,935	1,2	-0,085
5,936	1,2	-0,109
5,937	1,2	-0,111
5,938	1,2	-0,099
5,939	1,2	-0,082
5,94	1,2	-0,088
5,941	1,2	-0,089
5,942	1,2	-0,054
5,943	1,2	-0,049
5,944	1,2	-0,076
5,945	1,2	-0,094
5,946	1,2	-0,119
5,947	1,2	-0,131
5,948	1,2	-0,117
5,949	1,2	-0,096
5,95	1,2	-0,093
5,951	1,2	-0,117
5,952	1,2	-0,129
5,953	1,2	-0,131
5,954	1,2	-0,116
5,955	1,2	-0,102
5,956	1,2	-0,114
5,957	1,2	-0,123
5,958	1,2	-0,079
5,959	1,3	-0,075
5,96	1,3	-0,123
5,961	1,3	-0,124
5,962	1,3	-0,114
5,963	1,3	-0,116
5,964	1,3	-0,139
5,965	1,3	-0,159
5,966	1,3	-0,155
5,967	1,3	-0,140
5,968	1,3	-0,133
5,969	1,3	-0,116
5,97	1,3	-0,086
5,971	1,3	-0,079
5,972	1,3	-0,099
5,973	1,3	-0,096
5,974	1,3	-0,083
5,975	1,3	-0,114
5,976	1,3	-0,125
5,977	1,3	-0,121
5,978	1,3	-0,106
5,979	1,3	-0,081
5,98	1,3	-0,105
5,981	1,3	-0,114
5,982	1,3	-0,086
5,983	1,3	-0,071
5,984	1,3	-0,078
5,985	1,3	-0,088
5,986	1,3	-0,104
5,987	1,3	-0,105
5,988	1,3	-0,116
5,989	1,3	-0,154
5,99	1,3	-0,122
5,991	1,3	-0,103
5,992	1,3	-0,099
5,993	1,3	-0,076
5,994	1,3	-0,101
5,995	1,3	-0,111
5,996	1,3	-0,127
5,997	1,3	-0,164
5,998	1,3	-0,177
5,999	1,3	-0,143
6	1,3	-0,102
6,001	1,3	-0,089
6,002	1,3	-0,083
6,003	1,3	-0,084
6,004	1,3	-0,058
6,005	1,3	-0,061
6,006	1,3	-0,072
6,007	1,3	-0,089
6,008	1,3	-0,121
6,009	1,3	-0,101
6,01	1,3	-0,072
6,011	1,3	-0,059
6,012	1,3	-0,076
6,013	1,3	-0,085
6,014	1,3	-0,057
6,015	1,3	-0,058
6,016	1,3	-0,077
6,017	1,3	-0,099
6,018	1,3	-0,087
6,019	1,3	-0,063
6,02	1,3	-0,077
6,021	1,3	-0,090
6,022	1,3	-0,086
6,023	1,3	-0,103
6,024	1,3	-0,101
6,025	1,3	-0,087
6,026	1,3	-0,091
6,027	1,3	-0,087
6,028	1,3	-0,084
6,029	1,3	-0,101
6,03	1,3	-0,089
6,031	1,3	-0,069
6,032	1,3	-0,095
6,033	1,3	-0,096
6,034	1,3	-0,084
6,035	1,3	-0,096
6,036	1,3	-0,103
6,037	1,3	-0,112
6,038	1,3	-0,094
6,039	1,3	-0,097
6,04	1,3	-0,106
6,041	1,3	-0,077
6,042	1,3	-0,071
6,043	1,3	-0,068
6,044	1,3	-0,093
6,045	1,3	-0,100
6,046	1,3	-0,066
6,047	1,3	-0,076
6,048	1,3	-0,115
6,049	1,4	-0,111
6,05	1,4	-0,074
6,051	1,4	-0,076
6,052	1,4	-0,086
6,053	1,4	-0,085
6,054	1,4	-0,072
6,055	1,4	-0,072
6,056	1,4	-0,083
6,057	1,4	-0,067
6,058	1,4	-0,066
6,059	1,4	-0,099
6,06	1,4	-0,141
6,061	1,4	-0,133
6,062	1,4	-0,079
6,063	1,4	-0,033
6,064	1,4	-0,041
6,065	1,4	-0,079
6,066	1,4	-0,093
6,067	1,4	-0,081
6,068	1,4	-0,033
6,069	1,4	-0,034
6,07	1,4	-0,077
6,071	1,4	-0,094
6,072	1,4	-0,092
6,073	1,4	-0,076
6,074	1,4	-0,091
6,075	1,4	-0,104
6,076	1,4	-0,086
6,077	1,4	-0,073
6,078	1,4	-0,059
6,079	1,4	-0,078
6,08	1,4	-0,104
6,081	1,4	-0,104
6,082	1,5	-0,106
6,083	1,5	-0,094
6,084	1,5	-0,068
6,085	1,5	-0,044
6,086	1,5	-0,035
6,087	1,5	-0,030
6,088	1,5	-0,047
6,089	1,5	-0,058
6,09	1,5	-0,054
6,091	1,5	-0,069
6,092	1,5	-0,063
6,093	1,5	-0,049
6,094	1,5	-0,075
6,095	1,5	-0,099
6,096	1,5	-0,084
6,097	1,5	-0,044
6,098	1,5	-0,081
6,099	1,5	-0,242
6,1	1,5	-0,320
6,101	1,5	-0,311
6,102	1,5	-0,294
6,103	1,5	-0,268
6,104	1,5	-0,246
6,105	1,5	-0,247
6,106	1,5	-0,238
6,107	1,5	-0,207
6,108	1,5	-0,193
6,109	1,5	-0,188
6,11	1,5	-0,236
6,111	1,5	-0,249
6,112	1,5	-0,241
6,113	1,5	-0,296
6,114	1,5	-0,265
6,115	1,5	-0,212
6,116	1,5	-0,223
6,117	1,5	-0,224
6,118	1,5	-0,248
6,119	1,5	-0,261
6,12	1,5	-0,253
6,121	1,5	-0,246
6,122	1,5	-0,214
6,123	1,5	-0,203
6,124	1,5	-0,244
6,125	1,5	-0,242
6,126	1,5	-0,221
6,127	1,5	-0,212
6,128	1,5	-0,212
6,129	1,5	-0,254
6,13	1,5	-0,262
6,131	1,5	-0,249
6,132	1,5	-0,274
6,133	1,5	-0,286
6,134	1,5	-0,225
6,135	1,5	-0,214
6,136	1,5	-0,242
6,137	1,5	-0,249
6,138	1,5	-0,262
6,139	1,5	-0,249
6,14	1,5	-0,268
6,141	1,5	-0,277
6,142	1,5	-0,266
6,143	1,5	-0,269
6,144	1,5	-0,244
6,145	1,5	-0,219
6,146	1,5	-0,241
6,147	1,5	-0,241
6,148	1,5	-0,214
6,149	1,5	-0,198
6,15	1,5	-0,184
6,151	1,5	-0,208
6,152	1,5	-0,239
6,153	1,5	-0,235
6,154	1,5	-0,237
6,155	1,5	-0,253
6,156	1,5	-0,246
6,157	1,5	-0,246
6,158	1,5	-0,231
6,159	1,5	-0,224
6,16	1,5	-0,254
6,161	1,5	-0,283
6,162	1,5	-0,287
6,163	1,5	-0,269
6,164	1,5	-0,259
6,165	1,5	-0,231
6,166	1,5	-0,224
6,167	1,5	-0,209
6,168	1,5	-0,186
6,169	1,5	-0,226
6,17	1,5	-0,244
6,171	1,5	-0,236
6,172	1,5	-0,246
6,173	1,5	-0,266
6,174	1,5	-0,263
6,175	1,5	-0,261
6,176	1,5	-0,253
6,177	1,5	-0,209
6,178	1,5	-0,214
6,179	1,5	-0,244
6,18	1,5	-0,249
6,181	1,5	-0,251
6,182	1,6	-0,264
6,183	1,6	-0,241
6,184	1,6	-0,231
6,185	1,6	-0,210
6,186	1,6	-0,194
6,187	1,6	-0,227
6,188	1,6	-0,230
6,189	1,6	-0,239
6,19	1,6	-0,242
6,191	1,6	-0,225
6,192	1,6	-0,192
6,193	1,6	-0,173
6,194	1,6	-0,193
6,195	1,6	-0,211
6,196	1,6	-0,191
6,197	1,6	-0,181
6,198	1,6	-0,199
6,199	1,6	-0,211
6,2	1,6	-0,234
6,201	1,6	-0,237
6,202	1,6	-0,236
6,203	1,6	-0,249
6,204	1,6	-0,226
6,205	1,6	-0,168
6,206	1,6	-0,174
6,207	1,6	-0,195
6,208	1,6	-0,175
6,209	1,6	-0,178
6,21	1,6	-0,194
6,211	1,6	-0,212
6,212	1,6	-0,211
6,213	1,6	-0,215
6,214	1,6	-0,246
6,215	1,6	-0,230
6,216	1,6	-0,186
6,217	1,6	-0,180
6,218	1,6	-0,203
6,219	1,6	-0,219
6,22	1,6	-0,211
6,221	1,6	-0,177
6,222	1,6	-0,160
6,223	1,6	-0,194
6,224	1,6	-0,211
6,225	1,6	-0,189
6,226	1,6	-0,196
6,227	1,6	-0,194
6,228	1,6	-0,165
6,229	1,6	-0,151
6,23	1,6	-0,173
6,231	1,6	-0,220
6,232	1,6	-0,229
6,233	1,6	-0,225
6,234	1,7	-0,226
6,235	1,7	-0,223
6,236	1,7	-0,216
6,237	1,7	-0,214
6,238	1,7	-0,231
6,239	1,7	-0,209
6,24	1,7	-0,194
6,241	1,7	-0,176
6,242	1,7	-0,168
6,243	1,7	-0,198
6,244	1,7	-0,211
6,245	1,7	-0,191
6,246	1,7	-0,174
6,247	1,7	-0,193
6,248	1,7	-0,177
6,249	1,7	-0,154
6,25	1,7	-0,198
6,251	1,7	-0,202
6,252	1,7	-0,169
6,253	1,7	-0,208
6,254	1,7	-0,228
6,255	1,7	-0,237
6,256	1,7	-0,214
6,257	1,7	-0,179
6,258	1,7	-0,168
6,259	1,7	-0,128
6,26	1,7	-0,149
6,261	1,7	-0,178
6,262	1,7	-0,157
6,263	1,7	-0,154
6,264	1,7	-0,198
6,265	1,7	-0,199
6,266	1,7	-0,181
6,267	1,7	-0,198
6,268	1,7	-0,211
6,269	1,7	-0,249
6,27	1,7	-0,263
6,271	1,7	-0,222
6,272	1,7	-0,162
6,273	1,7	-0,141
6,274	1,7	-0,127
6,275	1,7	-0,111
6,276	1,7	-0,113
6,277	1,7	-0,106
6,278	1,7	-0,112
6,279	1,7	-0,111
6,28	1,7	-0,128
6,281	1,7	-0,133
6,282	1,7	-0,148
6,283	1,7	-0,174
6,284	1,7	-0,174
6,285	1,7	-0,156
6,286	1,7	-0,130
6,287	1,7	-0,106
6,288	1,7	-0,134
6,289	1,7	-0,186
6,29	1,7	-0,166
6,291	1,7	-0,163
6,292	1,7	-0,158
6,293	1,7	-0,136
6,294	1,7	-0,136
6,295	1,8	-0,146
6,296	1,8	-0,169
6,297	1,8	-0,206
6,298	1,8	-0,189
6,299	1,8	-0,149
6,3	1,8	-0,169
6,301	1,8	-0,159
6,302	1,8	-0,142
6,303	1,8	-0,127
6,304	1,8	-0,138
6,305	1,8	-0,169
6,306	1,8	-0,175
6,307	1,8	-0,206
6,308	1,8	-0,187
6,309	1,8	-0,132
6,31	1,8	-0,138
6,311	1,8	-0,150
6,312	1,8	-0,151
6,313	1,8	-0,158
6,314	1,8	-0,149
6,315	1,8	-0,138
6,316	1,8	-0,111
6,317	1,8	-0,118
6,318	1,8	-0,159
6,319	1,8	-0,163
6,32	1,8	-0,153
6,321	1,8	-0,156
6,322	1,8	-0,179
6,323	1,8	-0,171
6,324	1,8	-0,183
6,325	1,8	-0,197
6,326	1,8	-0,138
6,327	1,8	-0,094
6,328	1,8	-0,096
6,329	1,8	-0,117
6,33	1,8	-0,134
6,331	1,8	-0,133
6,332	1,8	-0,154
6,333	1,8	-0,184
6,334	1,8	-0,199
6,335	1,8	-0,228
6,336	1,8	-0,224
6,337	1,8	-0,216
6,338	1,8	-0,221
6,339	1,8	-0,192
6,34	1,8	-0,169
6,341	1,8	-0,145
6,342	1,8	-0,132
6,343	1,8	-0,157
6,344	1,8	-0,138
6,345	1,8	-0,069
6,346	1,8	-0,074
6,347	1,8	-0,113
6,348	1,8	-0,129
6,349	1,8	-0,138
6,35	1,8	-0,121
6,351	1,8	-0,138
6,352	1,8	-0,149
6,353	1,8	-0,118
6,354	1,8	-0,147
6,355	1,8	-0,178
6,356	1,8	-0,139
6,357	1,8	-0,151
6,358	1,8	-0,194
6,359	1,8	-0,154
6,36	1,8	-0,094
6,361	1,8	-0,101
6,362	1,8	-0,092
6,363	1,8	-0,069
6,364	1,8	-0,102
6,365	1,8	-0,137
6,366	1,8	-0,138
6,367	1,8	-0,108
6,368	1,8	-0,107
6,369	1,8	-0,121
6,37	1,8	-0,147
6,371	1,8	-0,154
6,372	1,8	-0,114
6,373	1,8	-0,136
6,374	1,8	-0,138
6,375	1,8	-0,111
6,376	1,8	-0,108
6,377	1,8	-0,119
6,378	1,8	-0,123
6,379	1,8	-0,124
6,38	1,8	-0,151
6,381	1,8	-0,164
6,382	1,8	-0,161
6,383	1,8	-0,161
6,384	1,8	-0,167
6,385	1,8	-0,150
6,386	1,8	-0,147
6,387	1,8	-0,165
6,388	1,8	-0,152
6,389	1,8	-0,161
6,39	1,8	-0,144
6,391	1,8	-0,123
6,392	1,8	-0,151
6,393	1,8	-0,129
6,394	1,8	-0,094
6,395	1,8	-0,105
6,396	1,8	-0,115
6,397	1,8	-0,137
6,398	1,8	-0,120
6,399	1,9	-0,096
6,4	1,9	-0,121
6,401	1,9	-0,129
6,402	1,9	-0,148
6,403	1,9	-0,124
6,404	1,9	-0,095
6,405	1,9	-0,107
6,406	1,9	-0,094
6,407	1,9	-0,086
6,408	1,9	-0,087
6,409	1,9	-0,092
6,41	1,9	-0,124
6,411	1,9	-0,112
6,412	1,9	-0,081
6,413	1,9	-0,099
6,414	1,9	-0,068
6,415	1,9	-0,064
6,416	1,9	-0,111
6,417	1,9	-0,127
6,418	1,9	-0,130
6,419	1,9	-0,124
6,42	1,9	-0,131
6,421	1,9	-0,119
6,422	1,9	-0,082
6,423	1,9	-0,078
6,424	1,9	-0,076
6,425	1,9	-0,086
6,426	1,9	-0,099
6,427	1,9	-0,046
6,428	1,9	-0,013
6,429	1,9	-0,026
6,43	1,9	-0,048
6,431	1,9	-0,075
6,432	1,9	-0,084
6,433	1,9	-0,101
6,434	1,9	-0,107
6,435	1,9	-0,119
6,436	1,9	-0,123
6,437	1,9	-0,143
6,438	1,9	-0,124
6,439	1,9	-0,054
6,44	1,9	-0,086
6,441	1,9	-0,109
6,442	1,9	-0,106
6,443	1,9	-0,128
6,444	1,9	-0,158
6,445	1,9	-0,171
6,446	1,9	-0,160
6,447	1,9	-0,141
6,448	1,9	-0,118
6,449	1,9	-0,103
6,45	1,9	-0,133
6,451	1,9	-0,171
6,452	1,9	-0,163
6,453	1,9	-0,184
6,454	1,9	-0,204
6,455	1,9	-0,193
6,456	1,9	-0,161
6,457	1,9	-0,176
6,458	1,9	-0,211
6,459	1,9	-0,136
6,46	1,9	-0,128
6,461	1,9	-0,184
6,462	1,9	-0,186
6,463	1,9	-0,180
6,464	1,9	-0,180
6,465	1,9	-0,177
6,466	1,9	-0,151
6,467	1,9	-0,139
6,468	1,9	-0,154
6,469	1,9	-0,165
6,47	1,9	-0,171
6,471	1,9	-0,171
6,472	1,9	-0,163
6,473	1,9	-0,148
6,474	1,9	-0,101
6,475	1,9	-0,089
6,476	1,9	-0,156
6,477	1,9	-0,177
6,478	1,9	-0,149
6,479	1,9	-0,141
6,48	1,9	-0,162
6,481	1,9	-0,157
6,482	1,9	-0,108
6,483	1,9	-0,133
6,484	1,9	-0,176
6,485	1,9	-0,134
6,486	1,9	-0,123
6,487	1,9	-0,160
6,488	1,9	-0,183
6,489	1,9	-0,191
6,49	1,9	-0,188
6,491	1,9	-0,189
6,492	1,9	-0,181
6,493	1,9	-0,178
6,494	1,9	-0,184
6,495	1,9	-0,143
6,496	1,9	-0,124
6,497	1,9	-0,164
6,498	1,9	-0,167
6,499	1,9	-0,134
6,5	1,9	-0,139
6,501	1,9	-0,165
6,502	1,9	-0,171
6,503	1,9	-0,164
6,504	1,9	-0,171
6,505	1,9	-0,153
6,506	1,9	-0,127
6,507	1,9	-0,118
6,508	1,9	-0,142
6,509	1,9	-0,163
6,51	1,9	-0,116
6,511	1,9	-0,081
6,512	1,9	-0,071
6,513	1,9	-0,103
6,514	1,9	-0,119
6,515	1,9	-0,115
6,516	1,9	-0,104
6,517	1,9	-0,108
6,518	1,9	-0,157
6,519	1,9	-0,146
6,52	1,9	-0,127
6,521	1,9	-0,163
6,522	1,9	-0,165
6,523	1,9	-0,131
6,524	1,9	-0,130
6,525	1,9	-0,124
6,526	1,9	-0,104
6,527	1,9	-0,084
6,528	1,9	-0,069
6,529	1,9	-0,048
6,53	1,9	-0,019
6,531	1,9	-0,018
6,532	1,9	-0,027
6,533	1,9	0,011
6,534	1,9	0,063
6,535	1,9	0,065
6,536	1,9	0,099
6,537	1,9	0,158
6,538	1,9	0,145
6,539	1,9	0,159
6,54	1,9	0,177
6,541	1,9	0,188
6,542	1,9	0,236
6,543	1,9	0,254
6,544	1,9	0,283
6,545	1,9	0,324
6,546	1,9	0,333
6,547	1,9	0,351
6,548	1,9	0,394
6,549	1,9	0,413
6,55	1,9	0,433
6,551	1,9	0,425
6,552	1,9	0,392
6,553	1,9	0,316
6,554	1,9	0,211
6,555	1,9	0,122
6,556	1,9	0,033
6,557	1,9	-0,002
6,558	1,9	-0,021
6,559	1,9	-0,034
6,56	1,9	-0,050
6,561	1,9	-0,073
6,562	1,9	-0,111
6,563	1,9	-0,146
6,564	1,9	-0,137
6,565	1,9	-0,171
6,566	1,9	-0,189
6,567	1,9	-0,228
6,568	1,9	-0,318
6,569	1,9	-0,261
6,57	1,9	-0,195
6,571	1,9	-0,216
6,572	1,9	-0,208
6,573	1,9	-0,234
6,574	1,9	-0,226
6,575	1,9	-0,183
6,576	1,9	-0,190
6,577	1,9	-0,198
6,578	1,9	-0,203
6,579	1,9	-0,214
6,58	1,9	-0,230
6,581	1,9	-0,234
6,582	1,9	-0,221
6,583	1,9	-0,194
6,584	1,9	-0,204
6,585	1,9	-0,214
6,586	1,9	-0,187
6,587	1,9	-0,171
6,588	1,9	-0,151
6,589	1,9	-0,168
6,59	1,9	-0,174
6,591	1,9	-0,169
6,592	1,9	-0,174
6,593	1,9	-0,155
6,594	1,9	-0,161
6,595	1,9	-0,159
6,596	2,0	-0,129
6,597	2,0	-0,131
6,598	2,0	-0,172
6,599	2,0	-0,168
6,6	2,0	-0,126
6,601	2,0	-0,119
6,602	2,0	-0,130
6,603	2,0	-0,122
6,604	2,0	-0,135
6,605	2,0	-0,135
6,606	2,0	-0,146
6,607	2,0	-0,159
6,608	2,0	-0,133
6,609	2,0	-0,169
6,61	2,0	-0,188
6,611	2,0	-0,188
6,612	2,0	-0,163
6,613	2,0	-0,133
6,614	2,0	-0,135
6,615	2,0	-0,123
6,616	2,0	-0,096
6,617	2,0	-0,069
6,618	2,0	-0,083
6,619	2,0	-0,126
6,62	2,0	-0,167
6,621	2,0	-0,158
6,622	2,0	-0,158
6,623	2,0	-0,184
6,624	2,0	-0,156
6,625	2,0	-0,115
6,626	2,0	-0,141
6,627	2,0	-0,177
6,628	2,0	-0,162
6,629	2,0	-0,127
6,63	2,0	-0,097
6,631	2,0	-0,103
6,632	2,0	-0,099
6,633	2,0	-0,094
6,634	2,0	-0,125
6,635	2,0	-0,136
6,636	2,0	-0,109
6,637	2,0	-0,101
6,638	2,0	-0,110
6,639	2,0	-0,099
6,64	2,0	-0,080
6,641	2,0	-0,084
6,642	2,0	-0,106
6,643	2,0	-0,093
6,644	2,0	-0,083
6,645	2,0	-0,087
6,646	2,0	-0,102
6,647	2,0	-0,141
6,648	2,0	-0,182
6,649	2,0	-0,186
6,65	2,0	-0,145
6,651	1,9	-0,129
6,652	1,9	-0,113
6,653	1,9	-0,083
6,654	1,9	-0,099
6,655	1,9	-0,138
6,656	1,9	-0,145
6,657	1,9	-0,116
6,658	1,9	-0,098
6,659	1,9	-0,116
6,66	1,9	-0,111
6,661	1,9	-0,103
6,662	1,9	-0,124
6,663	1,9	-0,091
6,664	1,9	-0,066
6,665	1,9	-0,056
6,666	1,9	-0,046
6,667	1,9	-0,062
6,668	1,9	-0,060
6,669	1,9	-0,056
6,67	1,9	-0,051
6,671	1,9	-0,028
6,672	1,9	-0,024
6,673	1,9	-0,039
6,674	1,9	-0,042
6,675	1,9	-0,048
6,676	1,8	-0,058
6,677	1,8	-0,083
6,678	1,8	-0,099
6,679	1,8	-0,082
6,68	1,8	-0,089
6,681	1,8	-0,128
6,682	1,8	-0,156
6,683	1,8	-0,168
6,684	1,8	-0,157
6,685	1,8	-0,134
6,686	1,8	-0,107
6,687	1,8	-0,051
6,688	1,8	-0,046
6,689	1,8	-0,109
6,69	1,8	-0,126
6,691	1,8	-0,098
6,692	1,8	-0,059
6,693	1,8	-0,028
6,694	1,8	-0,035
6,695	1,8	-0,059
6,696	1,8	-0,059
6,697	1,8	-0,067
6,698	1,8	-0,071
6,699	1,8	-0,055
6,7	1,8	-0,046
6,701	1,8	-0,069
6,702	1,8	-0,100
6,703	1,8	-0,088
6,704	1,8	-0,094
6,705	1,8	-0,069
6,706	1,8	-0,033
6,707	1,8	-0,042
6,708	1,7	-0,056
6,709	1,7	-0,054
6,71	1,7	-0,037
6,711	1,7	-0,033
6,712	1,7	-0,059
6,713	1,7	-0,083
6,714	1,7	-0,089
6,715	1,7	-0,122
6,716	1,7	-0,132
6,717	1,7	-0,101
6,718	1,7	-0,077
6,719	1,7	-0,080
6,72	1,7	-0,094
6,721	1,7	-0,079
6,722	1,7	-0,061
6,723	1,7	-0,036
6,724	1,7	0,001
6,725	1,7	-0,005
6,726	1,7	-0,037
6,727	1,7	-0,055
6,728	1,7	-0,038
6,729	1,7	-0,034
6,73	1,7	-0,064
6,731	1,7	-0,074
6,732	1,7	-0,018
6,733	1,7	0,028
6,734	1,7	0,012
6,735	1,7	-0,011
6,736	1,7	-0,029
6,737	1,7	-0,023
6,738	1,7	-0,022
6,739	1,7	-0,037
6,74	1,7	-0,042
6,741	1,7	-0,049
6,742	1,7	-0,076
6,743	1,7	-0,074
6,744	1,7	-0,049
6,745	1,7	-0,034
6,746	1,7	-0,007
6,747	1,7	-0,006
6,748	1,7	-0,029
6,749	1,7	-0,028
6,75	1,7	-0,007
6,751	1,7	-0,010
6,752	1,6	-0,021
6,753	1,6	-0,033
6,754	1,6	0,007
6,755	1,6	0,037
6,756	1,6	0,000
6,757	1,6	-0,009
6,758	1,6	0,010
6,759	1,6	0,046
6,76	1,6	0,050
6,761	1,6	0,021
6,762	1,6	0,004
6,763	1,6	0,016
6,764	1,6	0,046
6,765	1,6	0,034
6,766	1,6	0,028
6,767	1,6	0,022
6,768	1,6	-0,004
6,769	1,6	-0,009
6,77	1,6	-0,009
6,771	1,6	0,001
6,772	1,6	0,026
6,773	1,6	0,035
6,774	1,6	0,024
6,775	1,6	0,019
6,776	1,6	0,033
6,777	1,6	0,064
6,778	1,6	0,067
6,779	1,6	0,046
6,78	1,6	0,037
6,781	1,6	0,058
6,782	1,6	0,059
6,783	1,6	0,049
6,784	1,6	0,066
6,785	1,6	0,049
6,786	1,6	0,036
6,787	1,6	0,048
6,788	1,6	0,036
6,789	1,5	0,046
6,79	1,5	0,073
6,791	1,5	0,081
6,792	1,5	0,077
6,793	1,5	0,053
6,794	1,5	0,036
6,795	1,5	0,029
6,796	1,5	0,028
6,797	1,5	0,016
6,798	1,5	0,015
6,799	1,5	0,052
6,8	1,5	0,045
6,801	1,5	0,021
6,802	1,5	0,045
6,803	1,5	0,064
6,804	1,5	0,060
6,805	1,5	0,065
6,806	1,5	0,095
6,807	1,5	0,082
6,808	1,5	0,048
6,809	1,5	0,049
6,81	1,5	0,031
6,811	1,5	0,019
6,812	1,5	0,048
6,813	1,5	0,049
6,814	1,5	0,042
6,815	1,5	0,050
6,816	1,5	0,047
6,817	1,5	0,070
6,818	1,5	0,081
6,819	1,5	0,060
6,82	1,5	0,079
6,821	1,5	0,091
6,822	1,5	0,052
6,823	1,5	0,064
6,824	1,5	0,069
6,825	1,5	0,011
6,826	1,5	-0,023
6,827	1,5	0,013
6,828	1,5	0,052
6,829	1,5	0,044
6,83	1,4	0,044
6,831	1,4	0,014
6,832	1,4	-0,019
6,833	1,4	-0,011
6,834	1,4	0,007
6,835	1,4	-0,009
6,836	1,4	-0,062
6,837	1,4	-0,099
6,838	1,4	-0,112
6,839	1,4	-0,103
6,84	1,4	-0,064
6,841	1,4	-0,027
6,842	1,4	-0,007
6,843	1,4	0,007
6,844	1,4	-0,022
6,845	1,4	-0,041
6,846	1,4	-0,039
6,847	1,4	-0,026
6,848	1,4	0,018
6,849	1,4	0,022
6,85	1,4	-0,009
6,851	1,4	-0,023
6,852	1,4	-0,031
6,853	1,4	-0,058
6,854	1,4	-0,072
6,855	1,4	-0,061
6,856	1,4	-0,059
6,857	1,4	-0,081
6,858	1,3	-0,094
6,859	1,3	-0,099
6,86	1,3	-0,081
6,861	1,3	-0,034
6,862	1,3	-0,035
6,863	1,3	-0,048
6,864	1,3	-0,049
6,865	1,3	-0,062
6,866	1,3	-0,086
6,867	1,3	-0,107
6,868	1,3	-0,092
6,869	1,3	-0,086
6,87	1,3	-0,098
6,871	1,3	-0,093
6,872	1,3	-0,083
6,873	1,3	-0,081
6,874	1,3	-0,090
6,875	1,3	-0,096
6,876	1,3	-0,112
6,877	1,3	-0,138
6,878	1,3	-0,146
6,879	1,3	-0,133
6,88	1,3	-0,128
6,881	1,3	-0,110
6,882	1,3	-0,108
6,883	1,3	-0,118
6,884	1,3	-0,123
6,885	1,3	-0,128
6,886	1,3	-0,123
6,887	1,3	-0,129
6,888	1,3	-0,121
6,889	1,3	-0,097
6,89	1,3	-0,079
6,891	1,2	-0,059
6,892	1,2	-0,065
6,893	1,2	-0,111
6,894	1,2	-0,104
6,895	1,2	-0,071
6,896	1,2	-0,096
6,897	1,2	-0,122
6,898	1,2	-0,141
6,899	1,2	-0,153
6,9	1,2	-0,153
6,901	1,2	-0,147
6,902	1,2	-0,126
6,903	1,2	-0,146
6,904	1,2	-0,156
6,905	1,2	-0,134
6,906	1,2	-0,107
6,907	1,2	-0,080
6,908	1,2	-0,076
6,909	1,2	-0,090
6,91	1,2	-0,084
6,911	1,2	-0,070
6,912	1,2	-0,096
6,913	1,2	-0,106
6,914	1,2	-0,100
6,915	1,2	-0,130
6,916	1,2	-0,123
6,917	1,2	-0,126
6,918	1,2	-0,160
6,919	1,2	-0,143
6,92	1,2	-0,147
6,921	1,2	-0,140
6,922	1,1	-0,111
6,923	1,1	-0,099
6,924	1,1	-0,091
6,925	1,1	-0,084
6,926	1,1	-0,073
6,927	1,1	-0,103
6,928	1,1	-0,119
6,929	1,1	-0,113
6,93	1,1	-0,107
6,931	1,1	-0,075
6,932	1,1	-0,054
6,933	1,1	-0,066
6,934	1,1	-0,101
6,935	1,1	-0,102
6,936	1,1	-0,111
6,937	1,1	-0,154
6,938	1,1	-0,138
6,939	1,1	-0,099
6,94	1,1	-0,139
6,941	1,1	-0,163
6,942	1,1	-0,128
6,943	1,1	-0,088
6,944	1,1	-0,084
6,945	1,1	-0,114
6,946	1,1	-0,119
6,947	1,1	-0,084
6,948	1,1	-0,078
6,949	1,1	-0,123
6,95	1,1	-0,103
6,951	1,1	-0,089
6,952	1,1	-0,104
6,953	1,1	-0,099
6,954	1,1	-0,081
6,955	1,0	-0,095
6,956	1,0	-0,113
6,957	1,0	-0,103
6,958	1,0	-0,134
6,959	1,0	-0,123
6,96	1,0	-0,124
6,961	1,0	-0,134
6,962	1,0	-0,120
6,963	1,0	-0,124
6,964	1,0	-0,114
6,965	1,0	-0,102
6,966	1,0	-0,104
6,967	1,0	-0,118
6,968	1,0	-0,094
6,969	1,0	-0,080
6,97	1,0	-0,105
6,971	1,0	-0,111
6,972	1,0	-0,094
6,973	1,0	-0,083
6,974	1,0	-0,091
6,975	1,0	-0,088
6,976	1,0	-0,095
6,977	1,0	-0,101
6,978	1,0	-0,080
6,979	1,0	-0,092
6,98	1,0	-0,125
6,981	1,0	-0,138
6,982	1,0	-0,138
6,983	1,0	-0,094
6,984	0,9	-0,085
6,985	0,9	-0,111
6,986	0,9	-0,092
6,987	0,9	-0,088
6,988	0,9	-0,109
6,989	0,9	-0,128
6,99	0,9	-0,131
6,991	0,9	-0,103
6,992	0,9	-0,069
6,993	0,9	-0,074
6,994	0,9	-0,084
6,995	0,9	-0,091
6,996	0,9	-0,077
6,997	0,9	-0,071
6,998	0,9	-0,075
6,999	0,9	-0,051
7	0,9	-0,054
7,001	0,9	-0,070
7,002	0,9	-0,083
7,003	0,9	-0,095
7,004	0,9	-0,094
7,005	0,9	-0,094
7,006	0,9	-0,106
7,007	0,9	-0,122
7,008	0,9	-0,111
7,009	0,9	-0,081
7,01	0,9	-0,062
7,011	0,9	-0,076
7,012	0,9	-0,059
7,013	0,9	-0,052
7,014	0,9	-0,100
7,015	0,9	-0,119
7,016	0,9	-0,128
7,017	0,9	-0,126
7,018	0,9	-0,098
7,019	0,9	-0,069
7,02	0,9	-0,083
7,021	0,9	-0,064
7,022	0,9	-0,021
7,023	0,9	-0,031
7,024	0,9	-0,059
7,025	0,9	-0,081
7,026	0,9	-0,071
7,027	0,9	-0,064
7,028	0,9	-0,064
7,029	0,9	-0,081
7,03	0,9	-0,094
7,031	0,9	-0,077
7,032	0,9	-0,060
7,033	0,9	-0,033
7,034	0,9	-0,046
7,035	0,9	-0,101
7,036	0,9	-0,117
7,037	0,9	-0,099
7,038	0,9	-0,104
7,039	0,9	-0,101
7,04	0,9	-0,096
7,041	0,9	-0,091
7,042	0,9	-0,092
7,043	0,9	-0,081
7,044	0,9	-0,081
7,045	0,9	-0,099
7,046	0,9	-0,074
7,047	0,9	-0,063
7,048	0,9	-0,081
7,049	0,9	-0,080
7,05	0,9	-0,054
7,051	0,9	-0,062
7,052	0,9	-0,086
7,053	0,9	-0,080
7,054	0,9	-0,069
7,055	0,9	-0,055
7,056	0,9	-0,066
7,057	0,9	-0,092
7,058	0,9	-0,100
7,059	0,9	-0,112
7,06	0,9	-0,119
7,061	0,9	-0,103
7,062	0,9	-0,098
7,063	0,9	-0,063
7,064	0,9	-0,016
7,065	0,8	-0,050
7,066	0,8	-0,068
7,067	0,8	-0,043
7,068	0,8	-0,053
7,069	0,8	-0,058
7,07	0,8	-0,051
7,071	0,8	-0,071
7,072	0,8	-0,091
7,073	0,8	-0,086
7,074	0,8	-0,078
7,075	0,8	-0,081
7,076	0,8	-0,067
7,077	0,8	-0,076
7,078	0,8	-0,112
7,079	0,8	-0,103
7,08	0,8	-0,123
7,081	0,8	-0,152
7,082	0,8	-0,169
7,083	0,8	-0,151
7,084	0,8	-0,076
7,085	0,8	-0,048
7,086	0,8	-0,056
7,087	0,8	-0,063
7,088	0,8	-0,059
7,089	0,8	-0,061
7,09	0,8	-0,087
7,091	0,8	-0,088
7,092	0,8	-0,064
7,093	0,8	-0,065
7,094	0,8	-0,066
7,095	0,8	-0,063
7,096	0,8	-0,056
7,097	0,8	-0,059
7,098	0,8	-0,114
7,099	0,8	-0,118
7,1	0,8	-0,108
7,101	0,8	-0,123
7,102	0,8	-0,099
7,103	0,8	-0,099
7,104	0,8	-0,114
7,105	0,8	-0,098
7,106	0,8	-0,091
7,107	0,7	-0,101
7,108	0,7	-0,114
7,109	0,7	-0,124
7,11	0,7	-0,083
7,111	0,7	-0,068
7,112	0,7	-0,087
7,113	0,7	-0,081
7,114	0,7	-0,079
7,115	0,7	-0,068
7,116	0,7	-0,059
7,117	0,7	-0,063
7,118	0,7	-0,066
7,119	0,7	-0,086
7,12	0,7	-0,114
7,121	0,7	-0,118
7,122	0,7	-0,123
7,123	0,7	-0,113
7,124	0,7	-0,095
7,125	0,7	-0,072
7,126	0,7	-0,035
7,127	0,7	-0,038
7,128	0,7	-0,048
7,129	0,7	-0,056
7,13	0,7	-0,058
7,131	0,7	-0,066
7,132	0,7	-0,086
7,133	0,7	-0,101
7,134	0,7	-0,093
7,135	0,7	-0,088
7,136	0,7	-0,083
7,137	0,7	-0,060
7,138	0,7	-0,091
7,139	0,7	-0,090
7,14	0,7	-0,066
7,141	0,7	-0,089
7,142	0,7	-0,092
7,143	0,7	-0,127
7,144	0,7	-0,133
7,145	0,7	-0,101
7,146	0,7	-0,091
7,147	0,7	-0,085
7,148	0,7	-0,119
7,149	0,7	-0,111
7,15	0,7	-0,080
7,151	0,7	-0,099
7,152	0,7	-0,108
7,153	0,7	-0,078
7,154	0,7	-0,046
7,155	0,7	-0,056
7,156	0,7	-0,047
7,157	0,7	-0,013
7,158	0,7	-0,044
7,159	0,7	-0,072
7,16	0,6	-0,094
7,161	0,6	-0,121
7,162	0,6	-0,111
7,163	0,6	-0,075
7,164	0,6	-0,095
7,165	0,6	-0,099
7,166	0,6	-0,051
7,167	0,6	-0,060
7,168	0,6	-0,071
7,169	0,6	-0,068
7,17	0,6	-0,065
7,171	0,6	-0,071
7,172	0,6	-0,081
7,173	0,6	-0,074
7,174	0,6	-0,051
7,175	0,6	-0,044
7,176	0,6	-0,064
7,177	0,6	-0,070
7,178	0,6	-0,074
7,179	0,6	-0,052
7,18	0,6	-0,064
7,181	0,6	-0,098
7,182	0,6	-0,096
7,183	0,6	-0,113
7,184	0,6	-0,126
7,185	0,6	-0,131
7,186	0,6	-0,121
7,187	0,6	-0,089
7,188	0,6	-0,077
7,189	0,6	-0,100
7,19	0,6	-0,120
7,191	0,6	-0,119
7,192	0,6	-0,108
7,193	0,6	-0,120
7,194	0,6	-0,112
7,195	0,6	-0,094
7,196	0,6	-0,103
7,197	0,6	-0,088
7,198	0,6	-0,094
7,199	0,6	-0,108
7,2	0,6	-0,083
7,201	0,6	-0,061
7,202	0,6	-0,060
7,203	0,6	-0,037
7,204	0,6	-0,042
7,205	0,6	-0,073
7,206	0,6	-0,050
7,207	0,6	-0,019
7,208	0,6	-0,052
7,209	0,6	-0,127
7,21	0,6	-0,108
7,211	0,6	-0,071
7,212	0,6	-0,089
7,213	0,6	-0,133
7,214	0,6	-0,144
7,215	0,6	-0,086
7,216	0,6	-0,061
7,217	0,6	-0,069
7,218	0,6	-0,068
7,219	0,6	-0,065
7,22	0,6	-0,068
7,221	0,6	-0,061
7,222	0,6	-0,056
7,223	0,6	-0,075
7,224	0,6	-0,085
7,225	0,6	-0,071
7,226	0,6	-0,040
7,227	0,6	-0,033
7,228	0,6	-0,036
7,229	0,6	-0,049
7,23	0,6	-0,073
7,231	0,6	-0,069
7,232	0,6	-0,065
7,233	0,6	-0,065
7,234	0,6	-0,061
7,235	0,6	-0,077
7,236	0,6	-0,083
7,237	0,6	-0,061
7,238	0,6	-0,071
7,239	0,6	-0,065
7,24	0,6	-0,074
7,241	0,6	-0,084
7,242	0,6	-0,083
7,243	0,6	-0,103
7,244	0,6	-0,081
7,245	0,6	-0,054
7,246	0,6	-0,083
7,247	0,6	-0,109
7,248	0,6	-0,098
7,249	0,6	-0,132
7,25	0,6	-0,144
7,251	0,6	-0,122
7,252	0,6	-0,101
7,253	0,6	-0,058
7,254	0,6	-0,059
7,255	0,6	-0,052
7,256	0,6	-0,054
7,257	0,6	-0,104
7,258	0,6	-0,094
7,259	0,6	-0,031
7,26	0,6	-0,043
7,261	0,6	-0,075
7,262	0,6	-0,076
7,263	0,6	-0,111
7,264	0,6	-0,093
7,265	0,5	-0,043
7,266	0,5	-0,031
7,267	0,5	-0,050
7,268	0,5	-0,075
7,269	0,5	-0,041
7,27	0,5	-0,028
7,271	0,5	-0,079
7,272	0,5	-0,098
7,273	0,5	-0,075
7,274	0,5	-0,074
7,275	0,5	-0,106
7,276	0,5	-0,124
7,277	0,5	-0,094
7,278	0,5	-0,064
7,279	0,5	-0,066
7,28	0,5	-0,051
7,281	0,5	-0,033
7,282	0,5	-0,056
7,283	0,5	-0,075
7,284	0,5	-0,072
7,285	0,5	-0,085
7,286	0,5	-0,073
7,287	0,5	-0,076
7,288	0,5	-0,099
7,289	0,5	-0,111
7,29	0,5	-0,117
7,291	0,5	-0,104
7,292	0,5	-0,092
7,293	0,5	-0,083
7,294	0,5	-0,073
7,295	0,5	-0,068
7,296	0,5	-0,061
7,297	0,5	-0,074
7,298	0,5	-0,084
7,299	0,5	-0,064
7,3	0,5	-0,058
7,301	0,5	-0,050
7,302	0,5	-0,033
7,303	0,5	-0,004
7,304	0,5	-0,019
7,305	0,5	-0,070
7,306	0,5	-0,077
7,307	0,5	-0,063
7,308	0,5	-0,066
7,309	0,5	-0,059
7,31	0,5	-0,045
7,311	0,5	-0,056
7,312	0,5	-0,051
7,313	0,5	-0,042
7,314	0,5	-0,058
7,315	0,5	-0,071
7,316	0,5	-0,067
7,317	0,5	-0,052
7,318	0,5	-0,060
7,319	0,5	-0,069
7,32	0,5	-0,063
7,321	0,5	-0,051
7,322	0,5	-0,050
7,323	0,5	-0,069
7,324	0,5	-0,079
7,325	0,5	-0,090
7,326	0,5	-0,068
7,327	0,5	-0,023
7,328	0,5	-0,033
7,329	0,5	-0,053
7,33	0,5	-0,052
7,331	0,5	-0,041
7,332	0,5	-0,058
7,333	0,5	-0,069
7,334	0,5	-0,037
7,335	0,5	-0,014
7,336	0,5	-0,024
7,337	0,5	-0,044
7,338	0,5	-0,048
7,339	0,5	-0,033
7,34	0,5	-0,042
7,341	0,5	-0,056
7,342	0,5	-0,050
7,343	0,5	-0,034
7,344	0,5	-0,043
7,345	0,5	-0,050
7,346	0,5	-0,034
7,347	0,5	-0,025
7,348	0,5	-0,019
7,349	0,5	-0,032
7,35	0,5	-0,017
7,351	0,5	-0,009
7,352	0,5	-0,010
7,353	0,5	-0,016
7,354	0,5	-0,019
7,355	0,5	-0,010
7,356	0,5	-0,004
7,357	0,5	0,018
7,358	0,5	-0,014
7,359	0,5	-0,044
7,36	0,5	-0,053
7,361	0,5	-0,071
7,362	0,5	-0,061
7,363	0,5	-0,036
7,364	0,5	0,001
7,365	0,5	0,005
7,366	0,5	0,011
7,367	0,5	0,011
7,368	0,5	-0,014
7,369	0,5	-0,003
7,37	0,5	-0,003
7,371	0,5	-0,016
7,372	0,5	-0,021
7,373	0,5	-0,037
7,374	0,5	-0,030
7,375	0,5	-0,020
7,376	0,5	-0,027
7,377	0,5	-0,046
7,378	0,5	-0,057
7,379	0,5	-0,033
7,38	0,5	-0,055
7,381	0,5	-0,073
7,382	0,5	-0,068
7,383	0,5	-0,069
7,384	0,5	-0,038
7,385	0,5	-0,028
7,386	0,5	-0,033
7,387	0,5	-0,030
7,388	0,5	-0,033
7,389	0,5	-0,049
7,39	0,5	-0,068
7,391	0,5	-0,072
7,392	0,5	-0,037
7,393	0,5	-0,013
7,394	0,5	-0,054
7,395	0,5	-0,080
7,396	0,5	-0,094
7,397	0,5	-0,092
7,398	0,5	-0,057
7,399	0,5	-0,041
7,4	0,5	-0,038
7,401	0,5	-0,048
7,402	0,5	-0,074
7,403	0,5	-0,071
7,404	0,5	-0,052
7,405	0,5	-0,041
7,406	0,5	-0,029
7,407	0,5	-0,035
7,408	0,5	-0,057
7,409	0,5	-0,077
7,41	0,5	-0,073
7,411	0,5	-0,072
7,412	0,5	-0,090
7,413	0,5	-0,083
7,414	0,5	-0,077
7,415	0,5	-0,084
7,416	0,5	-0,072
7,417	0,5	-0,082
7,418	0,5	-0,092
7,419	0,5	-0,055
7,42	0,5	-0,050
7,421	0,5	-0,068
7,422	0,5	-0,072
7,423	0,4	-0,061
7,424	0,4	-0,056
7,425	0,4	-0,061
7,426	0,4	-0,051
7,427	0,4	-0,069
7,428	0,4	-0,075
7,429	0,4	-0,063
7,43	0,4	-0,081
7,431	0,4	-0,089
7,432	0,4	-0,081
7,433	0,4	-0,104
7,434	0,4	-0,114
7,435	0,4	-0,118
7,436	0,4	-0,113
7,437	0,4	-0,082
7,438	0,4	-0,101
7,439	0,4	-0,139
7,44	0,4	-0,118
7,441	0,4	-0,061
7,442	0,4	-0,048
7,443	0,4	-0,064
7,444	0,4	-0,079
7,445	0,4	-0,107
7,446	0,4	-0,131
7,447	0,4	-0,118
7,448	0,4	-0,079
7,449	0,4	-0,058
7,45	0,4	-0,052
7,451	0,4	-0,070
7,452	0,4	-0,090
7,453	0,4	-0,078
7,454	0,4	-0,073
7,455	0,4	-0,065
7,456	0,4	-0,054
7,457	0,4	-0,072
7,458	0,4	-0,089
7,459	0,4	-0,091
7,46	0,4	-0,072
7,461	0,4	-0,051
7,462	0,4	-0,038
7,463	0,4	-0,034
7,464	0,4	-0,050
7,465	0,4	-0,059
7,466	0,4	-0,079
7,467	0,4	-0,077
7,468	0,4	-0,055
7,469	0,4	-0,075
7,47	0,4	-0,092
7,471	0,4	-0,077
7,472	0,4	-0,042
7,473	0,4	0,003
7,474	0,4	0,025
7,475	0,4	0,012
7,476	0,4	0,013
7,477	0,4	0,048
7,478	0,4	0,059
7,479	0,4	0,071
7,48	0,4	0,111
7,481	0,4	0,118
7,482	0,4	0,114
7,483	0,4	0,169
7,484	0,4	0,194
7,485	0,4	0,180
7,486	0,4	0,187
7,487	0,4	0,215
7,488	0,4	0,254
7,489	0,4	0,274
7,49	0,4	0,319
7,491	0,4	0,328
7,492	0,4	0,318
7,493	0,4	0,346
7,494	0,4	0,396
7,495	0,4	0,453
7,496	0,4	0,474
7,497	0,4	0,494
7,498	0,4	0,534
7,499	0,4	0,544
7,5	0,4	0,464
7,501	0,4	0,306
7,502	0,4	0,192
7,503	0,4	0,176
7,504	0,4	0,144
7,505	0,4	0,072
7,506	0,4	0,024
7,507	0,4	-0,033
7,508	0,4	-0,094
7,509	0,4	-0,138
7,51	0,4	-0,145
7,511	0,4	-0,106
7,512	0,4	-0,097
7,513	0,4	-0,126
7,514	0,4	-0,134
7,515	0,4	-0,141
7,516	0,4	-0,150
7,517	0,4	-0,142
7,518	0,4	-0,160
7,519	0,4	-0,196
7,52	0,4	-0,210
7,521	0,4	-0,186
7,522	0,4	-0,176
7,523	0,4	-0,175
7,524	0,4	-0,150
7,525	0,4	-0,165
7,526	0,4	-0,188
7,527	0,4	-0,200
7,528	0,4	-0,223
7,529	0,4	-0,209
7,53	0,4	-0,152
7,531	0,4	-0,103
7,532	0,4	-0,105
7,533	0,4	-0,117
7,534	0,4	-0,098
7,535	0,4	-0,090
7,536	0,4	-0,114
7,537	0,4	-0,108
7,538	0,4	-0,109
7,539	0,4	-0,135
7,54	0,4	-0,118
7,541	0,4	-0,107
7,542	0,4	-0,129
7,543	0,4	-0,141
7,544	0,5	-0,140
7,545	0,5	-0,125
7,546	0,5	-0,092
7,547	0,5	-0,092
7,548	0,5	-0,103
7,549	0,5	-0,114
7,55	0,5	-0,115
7,551	0,5	-0,095
7,552	0,5	-0,074
7,553	0,5	-0,078
7,554	0,5	-0,086
7,555	0,5	-0,089
7,556	0,5	-0,096
7,557	0,5	-0,096
7,558	0,5	-0,128
7,559	0,5	-0,126
7,56	0,5	-0,105
7,561	0,5	-0,113
7,562	0,5	-0,112
7,563	0,5	-0,111
7,564	0,5	-0,108
7,565	0,5	-0,072
7,566	0,5	-0,034
7,567	0,5	-0,059
7,568	0,5	-0,084
7,569	0,5	-0,067
7,57	0,5	-0,029
7,571	0,5	-0,037
7,572	0,5	-0,049
7,573	0,5	-0,047
7,574	0,5	-0,071
7,575	0,5	-0,065
7,576	0,5	-0,099
7,577	0,5	-0,107
7,578	0,5	-0,075
7,579	0,5	-0,091
7,58	0,5	-0,100
7,581	0,5	-0,110
7,582	0,5	-0,109
7,583	0,5	-0,081
7,584	0,5	-0,071
7,585	0,5	-0,082
7,586	0,5	-0,067
7,587	0,5	-0,046
7,588	0,5	-0,036
7,589	0,5	-0,038
7,59	0,5	-0,068
7,591	0,5	-0,089
7,592	0,5	-0,064
7,593	0,5	-0,058
7,594	0,5	-0,086
7,595	0,5	-0,066
7,596	0,5	-0,044
7,597	0,5	-0,049
7,598	0,5	-0,079
7,599	0,5	-0,077
7,6	0,5	-0,044
7,601	0,5	-0,050
7,602	0,5	-0,037
7,603	0,5	-0,036
7,604	0,5	-0,075
7,605	0,5	-0,089
7,606	0,5	-0,076
7,607	0,4	-0,048
7,608	0,4	-0,039
7,609	0,4	-0,086
7,61	0,4	-0,079
7,611	0,4	-0,044
7,612	0,4	-0,050
7,613	0,4	-0,021
7,614	0,4	-0,011
7,615	0,4	-0,030
7,616	0,4	-0,040
7,617	0,4	-0,055
7,618	0,4	-0,077
7,619	0,4	-0,041
7,62	0,4	-0,011
7,621	0,4	-0,022
7,622	0,4	-0,024
7,623	0,4	-0,047
7,624	0,4	-0,040
7,625	0,4	-0,019
7,626	0,4	-0,034
7,627	0,4	-0,061
7,628	0,4	-0,061
7,629	0,4	-0,080
7,63	0,4	-0,083
7,631	0,4	-0,063
7,632	0,4	-0,043
7,633	0,4	-0,043
7,634	0,4	-0,059
7,635	0,4	-0,016
7,636	0,4	-0,028
7,637	0,4	-0,084
7,638	0,4	-0,084
7,639	0,4	-0,037
7,64	0,4	-0,018
7,641	0,4	-0,030
7,642	0,4	-0,042
7,643	0,4	-0,042
7,644	0,4	-0,034
7,645	0,4	-0,045
7,646	0,4	-0,037
7,647	0,4	-0,048
7,648	0,4	-0,063
7,649	0,4	-0,055
7,65	0,4	-0,062
7,651	0,4	-0,068
7,652	0,4	-0,054
7,653	0,4	-0,059
7,654	0,4	-0,053
7,655	0,4	-0,037
7,656	0,4	-0,058
7,657	0,4	-0,040
7,658	0,4	-0,006
7,659	0,4	-0,001
7,66	0,4	0,006
7,661	0,4	0,008
7,662	0,4	-0,006
7,663	0,4	0,004
7,664	0,4	-0,001
7,665	0,4	-0,026
7,666	0,4	-0,024
7,667	0,4	-0,044
7,668	0,4	-0,036
7,669	0,4	-0,003
7,67	0,4	-0,030
7,671	0,4	-0,055
7,672	0,4	-0,003
7,673	0,4	-0,001
7,674	0,4	-0,034
7,675	0,4	-0,028
7,676	0,4	-0,023
7,677	0,4	-0,032
7,678	0,4	-0,059
7,679	0,4	-0,038
7,68	0,4	0,008
7,681	0,4	0,021
7,682	0,4	0,006
7,683	0,4	0,014
7,684	0,4	0,039
7,685	0,4	0,025
7,686	0,4	0,009
7,687	0,4	0,003
7,688	0,4	0,026
7,689	0,4	0,028
7,69	0,4	-0,021
7,691	0,4	-0,021
7,692	0,4	0,033
7,693	0,4	0,049
7,694	0,4	0,049
7,695	0,4	0,052
7,696	0,4	0,024
7,697	0,4	0,026
7,698	0,4	0,026
7,699	0,4	0,019
7,7	0,4	0,018
7,701	0,4	0,017
7,702	0,4	0,042
7,703	0,4	0,049
7,704	0,4	0,035
7,705	0,4	0,038
7,706	0,4	0,044
7,707	0,4	0,022
7,708	0,4	0,019
7,709	0,4	0,043
7,71	0,4	0,039
7,711	0,4	0,027
7,712	0,4	0,033
7,713	0,4	0,031
7,714	0,4	0,024
7,715	0,4	0,053
7,716	0,4	0,098
7,717	0,4	0,115
7,718	0,4	0,091
7,719	0,4	0,059
7,72	0,4	0,062
7,721	0,4	0,080
7,722	0,4	0,099
7,723	0,4	0,111
7,724	0,4	0,111
7,725	0,4	0,056
7,726	0,4	0,052
7,727	0,4	0,091
7,728	0,4	0,070
7,729	0,4	0,089
7,73	0,4	0,119
7,731	0,4	0,105
7,732	0,4	0,058
7,733	0,4	0,034
7,734	0,4	0,080
7,735	0,4	0,087
7,736	0,4	0,068
7,737	0,4	0,079
7,738	0,4	0,068
7,739	0,4	0,078
7,74	0,4	0,084
7,741	0,4	0,071
7,742	0,4	0,060
7,743	0,4	0,050
7,744	0,4	0,081
7,745	0,4	0,105
7,746	0,4	0,119
7,747	0,4	0,104
7,748	0,4	0,089
7,749	0,4	0,118
7,75	0,4	0,096
7,751	0,4	0,037
7,752	0,4	0,024
7,753	0,4	0,048
7,754	0,3	0,068
7,755	0,3	0,091
7,756	0,3	0,098
7,757	0,3	0,075
7,758	0,3	0,068
7,759	0,3	0,097
7,76	0,4	0,092
7,761	0,4	0,072
7,762	0,4	0,066
7,763	0,3	0,058
7,764	0,3	0,081
7,765	0,3	0,081
7,766	0,3	0,065
7,767	0,3	0,075
7,768	0,3	0,089
7,769	0,3	0,104
7,77	0,3	0,122
7,771	0,3	0,126
7,772	0,3	0,101
7,773	0,3	0,068
7,774	0,3	0,072
7,775	0,3	0,083
7,776	0,3	0,066
7,777	0,3	0,068
7,778	0,3	0,046
7,779	0,3	0,032
7,78	0,3	0,018
7,781	0,3	-0,018
7,782	0,3	-0,004
7,783	0,3	-0,003
7,784	0,3	-0,006
7,785	0,3	0,010
7,786	0,3	0,008
7,787	0,3	-0,009
7,788	0,3	0,009
7,789	0,3	0,032
7,79	0,3	0,023
7,791	0,3	-0,001
7,792	0,3	-0,005
7,793	0,3	-0,007
7,794	0,3	-0,021
7,795	0,3	-0,016
7,796	0,3	-0,028
7,797	0,3	-0,034
7,798	0,3	-0,046
7,799	0,3	-0,074
7,8	0,3	-0,093
7,801	0,3	-0,071
7,802	0,3	-0,048
7,803	0,3	-0,057
7,804	0,3	-0,041
7,805	0,3	-0,023
7,806	0,3	-0,007
7,807	0,3	-0,019
7,808	0,3	-0,035
7,809	0,3	-0,029
7,81	0,3	-0,072
7,811	0,3	-0,097
7,812	0,3	-0,096
7,813	0,3	-0,110
7,814	0,3	-0,083
7,815	0,3	-0,068
7,816	0,3	-0,095
7,817	0,3	-0,081
7,818	0,3	-0,028
7,819	0,3	-0,013
7,82	0,3	-0,068
7,821	0,3	-0,111
7,822	0,3	-0,106
7,823	0,3	-0,083
7,824	0,3	-0,067
7,825	0,3	-0,072
7,826	0,3	-0,056
7,827	0,3	-0,055
7,828	0,3	-0,062
7,829	0,3	-0,072
7,83	0,3	-0,089
7,831	0,3	-0,087
7,832	0,3	-0,099
7,833	0,3	-0,114
7,834	0,3	-0,109
7,835	0,3	-0,104
7,836	0,3	-0,121
7,837	0,3	-0,102
7,838	0,3	-0,097
7,839	0,3	-0,112
7,84	0,3	-0,109
7,841	0,3	-0,104
7,842	0,3	-0,086
7,843	0,3	-0,106
7,844	0,3	-0,116
7,845	0,3	-0,101
7,846	0,3	-0,110
7,847	0,3	-0,099
7,848	0,3	-0,063
7,849	0,3	-0,076
7,85	0,3	-0,101
7,851	0,3	-0,123
7,852	0,3	-0,133
7,853	0,3	-0,092
7,854	0,3	-0,073
7,855	0,3	-0,091
7,856	0,3	-0,098
7,857	0,3	-0,091
7,858	0,3	-0,120
7,859	0,3	-0,146
7,86	0,3	-0,106
7,861	0,3	-0,054
7,862	0,3	-0,063
7,863	0,3	-0,055
7,864	0,3	-0,046
7,865	0,3	-0,078
7,866	0,3	-0,083
7,867	0,3	-0,077
7,868	0,3	-0,077
7,869	0,3	-0,102
7,87	0,3	-0,101
7,871	0,3	-0,084
7,872	0,3	-0,086
7,873	0,3	-0,069
7,874	0,3	-0,069
7,875	0,3	-0,071
7,876	0,3	-0,101
7,877	0,3	-0,107
7,878	0,3	-0,091
7,879	0,3	-0,091
7,88	0,3	-0,068
7,881	0,3	-0,088
7,882	0,3	-0,124
7,883	0,2	-0,127
7,884	0,2	-0,124
7,885	0,2	-0,109
7,886	0,2	-0,074
7,887	0,2	-0,063
7,888	0,2	-0,055
7,889	0,2	-0,072
7,89	0,2	-0,103
7,891	0,2	-0,101
7,892	0,2	-0,106
7,893	0,2	-0,109
7,894	0,2	-0,111
7,895	0,2	-0,124
7,896	0,2	-0,136
7,897	0,2	-0,123
7,898	0,2	-0,101
7,899	0,2	-0,086
7,9	0,2	-0,063
7,901	0,2	-0,071
7,902	0,2	-0,130
7,903	0,2	-0,162
7,904	0,2	-0,138
7,905	0,2	-0,126
7,906	0,2	-0,112
7,907	0,2	-0,099
7,908	0,2	-0,091
7,909	0,2	-0,077
7,91	0,2	-0,063
7,911	0,2	-0,043
7,912	0,2	-0,044
7,913	0,2	-0,066
7,914	0,2	-0,076
7,915	0,2	-0,074
7,916	0,2	-0,091
7,917	0,2	-0,101
7,918	0,2	-0,089
7,919	0,2	-0,086
7,92	0,2	-0,091
7,921	0,2	-0,076
7,922	0,2	-0,062
7,923	0,2	-0,076
7,924	0,2	-0,098
7,925	0,2	-0,101
7,926	0,2	-0,107
7,927	0,2	-0,108
7,928	0,2	-0,086
7,929	0,2	-0,112
7,93	0,2	-0,126
7,931	0,2	-0,116
7,932	0,2	-0,105
7,933	0,2	-0,084
7,934	0,2	-0,098
7,935	0,2	-0,084
7,936	0,2	-0,109
7,937	0,2	-0,117
7,938	0,2	-0,082
7,939	0,2	-0,075
7,94	0,2	-0,051
7,941	0,2	-0,078
7,942	0,2	-0,083
7,943	0,2	-0,043
7,944	0,2	-0,048
7,945	0,2	-0,058
7,946	0,2	-0,055
7,947	0,2	-0,055
7,948	0,2	-0,025
7,949	0,2	-0,022
7,95	0,2	-0,061
7,951	0,2	-0,039
7,952	0,2	-0,019
7,953	0,2	-0,037
7,954	0,2	-0,071
7,955	0,2	-0,082
7,956	0,2	-0,076
7,957	0,2	-0,068
7,958	0,2	-0,068
7,959	0,2	-0,086
7,96	0,2	-0,121
7,961	0,2	-0,131
7,962	0,2	-0,100
7,963	0,2	-0,059
7,964	0,2	-0,040
7,965	0,2	-0,048
7,966	0,2	-0,044
7,967	0,2	-0,041
7,968	0,2	-0,031
7,969	0,2	-0,051
7,97	0,2	-0,071
7,971	0,2	-0,056
7,972	0,2	-0,064
7,973	0,2	-0,068
7,974	0,2	-0,054
7,975	0,2	-0,089
7,976	0,2	-0,104
7,977	0,2	-0,075
7,978	0,2	-0,091
7,979	0,2	-0,085
7,98	0,2	-0,068
7,981	0,2	-0,098
7,982	0,2	-0,090
7,983	0,2	-0,065
7,984	0,2	-0,056
7,985	0,2	-0,056
7,986	0,2	-0,111
7,987	0,2	-0,142
7,988	0,2	-0,080
7,989	0,2	-0,038
7,99	0,2	-0,021
7,991	0,2	-0,031
7,992	0,2	-0,042
7,993	0,2	-0,037
7,994	0,2	-0,043
7,995	0,2	-0,031
7,996	0,2	-0,051
7,997	0,2	-0,069
7,998	0,2	-0,083
7,999	0,2	-0,090
8	0,2	-0,061
8,001	0,2	-0,059
8,002	0,2	-0,084
8,003	0,2	-0,068
8,004	0,2	-0,041
8,005	0,2	-0,056
8,006	0,2	-0,061
8,007	0,2	-0,065
8,008	0,2	-0,077
8,009	0,2	-0,069
8,01	0,2	-0,069
8,011	0,2	-0,079
8,012	0,2	-0,101
8,013	0,2	-0,114
8,014	0,2	-0,091
8,015	0,2	-0,074
8,016	0,2	-0,084
8,017	0,2	-0,106
8,018	0,2	-0,089
8,019	0,2	-0,037
8,02	0,2	-0,024
8,021	0,2	-0,075
8,022	0,2	-0,121
8,023	0,2	-0,096
8,024	0,2	-0,086
8,025	0,2	-0,089
8,026	0,2	-0,081
8,027	0,2	-0,086
8,028	0,2	-0,050
8,029	0,2	-0,031
8,03	0,2	-0,043
8,031	0,2	-0,056
8,032	0,2	-0,081
8,033	0,2	-0,072
8,034	0,2	-0,057
8,035	0,2	-0,071
8,036	0,2	-0,086
8,037	0,2	-0,072
8,038	0,2	-0,042
8,039	0,2	-0,028
8,04	0,2	-0,047
8,041	0,2	-0,059
8,042	0,2	-0,079
8,043	0,2	-0,110
8,044	0,2	-0,080
8,045	0,2	-0,058
8,046	0,2	-0,041
8,047	0,2	-0,037
8,048	0,2	-0,079
8,049	0,2	-0,111
8,05	0,2	-0,099
8,051	0,2	-0,063
8,052	0,2	-0,051
8,053	0,2	-0,058
8,054	0,2	-0,076
8,055	0,2	-0,074
8,056	0,2	-0,074
8,057	0,2	-0,088
8,058	0,2	-0,081
8,059	0,2	-0,079
8,06	0,2	-0,064
8,061	0,2	-0,056
8,062	0,2	-0,063
8,063	0,2	-0,063
8,064	0,2	-0,082
8,065	0,2	-0,073
8,066	0,2	-0,056
8,067	0,2	-0,072
8,068	0,2	-0,076
8,069	0,2	-0,071
8,07	0,2	-0,037
8,071	0,2	-0,016
8,072	0,2	-0,058
8,073	0,2	-0,084
8,074	0,2	-0,104
8,075	0,2	-0,104
8,076	0,2	-0,081
8,077	0,2	-0,089
8,078	0,2	-0,117
8,079	0,2	-0,123
8,08	0,2	-0,098
8,081	0,2	-0,082
8,082	0,2	-0,081
8,083	0,2	-0,061
8,084	0,2	-0,064
8,085	0,2	-0,100
8,086	0,2	-0,108
8,087	0,2	-0,092
8,088	0,2	-0,086
8,089	0,2	-0,103
8,09	0,2	-0,104
8,091	0,2	-0,109
8,092	0,2	-0,132
8,093	0,2	-0,103
8,094	0,2	-0,052
8,095	0,2	-0,037
8,096	0,2	-0,051
8,097	0,2	-0,064
8,098	0,2	-0,059
8,099	0,2	-0,051
8,1	0,2	-0,045
8,101	0,2	-0,037
8,102	0,2	-0,015
8,103	0,2	-0,011
8,104	0,2	-0,029
8,105	0,2	-0,053
8,106	0,2	-0,079
8,107	0,2	-0,096
8,108	0,2	-0,081
8,109	0,2	-0,054
8,11	0,2	-0,064
8,111	0,2	-0,058
8,112	0,2	-0,019
8,113	0,2	-0,004
8,114	0,2	-0,044
8,115	0,2	-0,043
8,116	0,2	-0,010
8,117	0,2	-0,021
8,118	0,2	-0,047
8,119	0,2	-0,058
8,12	0,2	-0,050
8,121	0,2	-0,061
8,122	0,2	-0,083
8,123	0,2	-0,076
8,124	0,2	-0,038
8,125	0,2	-0,051
8,126	0,2	-0,067
8,127	0,2	-0,055
8,128	0,2	-0,045
8,129	0,2	-0,012
8,13	0,2	-0,025
8,131	0,2	-0,079
8,132	0,2	-0,077
8,133	0,2	-0,061
8,134	0,2	-0,049
8,135	0,2	-0,022
8,136	0,2	-0,012
8,137	0,2	-0,009
8,138	0,2	-0,024
8,139	0,2	-0,052
8,14	0,2	-0,058
8,141	0,2	-0,072
8,142	0,2	-0,074
8,143	0,2	-0,041
8,144	0,2	-0,027
8,145	0,2	-0,052
8,146	0,2	-0,055
8,147	0,2	-0,046
8,148	0,2	-0,058
8,149	0,2	-0,078
8,15	0,2	-0,090
8,151	0,2	-0,089
8,152	0,2	-0,079
8,153	0,2	-0,075
8,154	0,2	-0,081
8,155	0,2	-0,076
8,156	0,2	-0,076
8,157	0,2	-0,063
8,158	0,2	-0,044
8,159	0,2	-0,050
8,16	0,2	-0,086
8,161	0,2	-0,086
8,162	0,2	-0,095
8,163	0,2	-0,121
8,164	0,2	-0,079
8,165	0,2	-0,057
8,166	0,2	-0,066
8,167	0,2	-0,075
8,168	0,2	-0,074
8,169	0,2	-0,082
8,17	0,2	-0,115
8,171	0,2	-0,108
8,172	0,2	-0,091
8,173	0,2	-0,092
8,174	0,2	-0,094
8,175	0,2	-0,098
8,176	0,2	-0,144
8,177	0,2	-0,138
8,178	0,2	-0,083
8,179	0,2	-0,070
8,18	0,2	-0,064
8,181	0,2	-0,037
8,182	0,2	-0,030
8,183	0,2	-0,082
8,184	0,2	-0,087
8,185	0,2	-0,018
8,186	0,2	0,014
8,187	0,2	-0,019
8,188	0,2	-0,047
8,189	0,2	-0,052
8,19	0,2	-0,057
8,191	0,2	-0,041
8,192	0,2	-0,037
8,193	0,2	-0,043
8,194	0,2	-0,041
8,195	0,2	-0,032
8,196	0,2	-0,039
8,197	0,2	-0,070
8,198	0,2	-0,069
8,199	0,2	-0,067
8,2	0,2	-0,074
8,201	0,2	-0,075
8,202	0,2	-0,083
8,203	0,2	-0,055
8,204	0,2	-0,043
8,205	0,2	-0,066
8,206	0,2	-0,056
8,207	0,2	-0,051
8,208	0,2	-0,072
8,209	0,2	-0,066
8,21	0,2	-0,039
8,211	0,2	-0,046
8,212	0,2	-0,093
8,213	0,2	-0,120
8,214	0,1	-0,129
8,215	0,2	-0,111
8,216	0,2	-0,048
8,217	0,2	-0,024
8,218	0,2	-0,043
8,219	0,2	-0,049
8,22	0,2	-0,053
8,221	0,2	-0,066
8,222	0,2	-0,079
8,223	0,2	-0,075
8,224	0,2	-0,069
8,225	0,2	-0,074
8,226	0,1	-0,064
8,227	0,1	-0,052
8,228	0,1	-0,064
8,229	0,1	-0,067
8,23	0,1	-0,036
8,231	0,1	-0,024
8,232	0,1	-0,041
8,233	0,1	-0,063
8,234	0,1	-0,111
8,235	0,1	-0,119
8,236	0,1	-0,079
8,237	0,1	-0,079
8,238	0,1	-0,114
8,239	0,1	-0,099
8,24	0,1	-0,042
8,241	0,1	-0,029
8,242	0,1	-0,041
8,243	0,1	-0,046
8,244	0,1	-0,044
8,245	0,1	-0,089
8,246	0,1	-0,113
8,247	0,1	-0,103
8,248	0,1	-0,104
8,249	0,1	-0,100
8,25	0,1	-0,096
8,251	0,1	-0,068
8,252	0,1	-0,057
8,253	0,1	-0,032
8,254	0,1	-0,004
8,255	0,1	-0,031
8,256	0,1	-0,051
8,257	0,1	-0,083
8,258	0,1	-0,104
8,259	0,1	-0,078
8,26	0,1	-0,071
8,261	0,1	-0,068
8,262	0,1	-0,082
8,263	0,1	-0,087
8,264	0,1	-0,037
8,265	0,1	-0,029
8,266	0,1	-0,021
8,267	0,1	-0,014
8,268	0,1	-0,022
8,269	0,1	0,015
8,27	0,1	-0,013
8,271	0,1	-0,066
8,272	0,1	-0,094
8,273	0,1	-0,083
8,274	0,1	-0,069
8,275	0,1	-0,101
8,276	0,1	-0,101
8,277	0,1	-0,089
8,278	0,1	-0,075
8,279	0,1	-0,028
8,28	0,1	-0,036
8,281	0,1	-0,072
8,282	0,1	-0,061
8,283	0,1	-0,052
8,284	0,1	-0,043
8,285	0,1	-0,050
8,286	0,1	-0,047
8,287	0,1	-0,049
8,288	0,1	-0,062
8,289	0,1	-0,042
8,29	0,1	-0,061
8,291	0,1	-0,074
8,292	0,1	-0,064
8,293	0,1	-0,054
8,294	0,1	-0,056
8,295	0,1	-0,072
8,296	0,1	-0,093
8,297	0,1	-0,117
8,298	0,1	-0,124
8,299	0,1	-0,119
8,3	0,1	-0,113
8,301	0,1	-0,094
8,302	0,1	-0,066
8,303	0,1	-0,063
8,304	0,1	-0,037
8,305	0,1	-0,028
8,306	0,1	-0,049
8,307	0,1	-0,056
8,308	0,1	-0,063
8,309	0,1	-0,040
8,31	0,1	-0,028
8,311	0,1	-0,055
8,312	0,1	-0,052
8,313	0,1	-0,043
8,314	0,1	-0,056
8,315	0,1	-0,059
8,316	0,1	-0,058
8,317	0,1	-0,041
8,318	0,1	-0,048
8,319	0,1	-0,056
8,32	0,1	-0,046
8,321	0,1	-0,048
8,322	0,1	-0,046
8,323	0,1	-0,059
8,324	0,1	-0,067
8,325	0,1	-0,042
8,326	0,1	-0,025
8,327	0,1	-0,024
8,328	0,1	-0,038
8,329	0,1	-0,084
8,33	0,1	-0,081
8,331	0,1	-0,051
8,332	0,1	-0,049
8,333	0,1	-0,037
8,334	0,1	-0,026
8,335	0,1	-0,022
8,336	0,1	-0,037
8,337	0,1	-0,046
8,338	0,1	-0,007
8,339	0,1	0,022
8,34	0,1	0,016
